1330382470131355648
1330190853902655496
1330189069066903554
1330171474548809732
1330048830918815744
1330045758175932416
1329858622726184961
1329845643251052545
1329828092227907587
1329809428787453952
1329731458164948993
1329717457150328834
1329703619868897280
1329686567556767745
1329490174258995200
1329484313864273920
1329481160867545089
1329480777835237376
1329447042993840131
1329430752207974409
1329427018945990656
1329424508701220865
1329423057027538947
1329389652923465728
1329366429750083584
1329364224309555200
1329363960064217088
1329363869324623873
1329363421565911041
1329363323872112641
1329362824221495296
1329341230241767424
1329328555738611712
1329327192916905985
1329127409124196354
1329123086570950661
1329115230761218049
1329084693392736260
1329050904989822977
1329045275055329280
1329012177890492416
1329012054322159616
1328988007743983616
1328978851624611849
1328935325968850944
1328777248460083200
1328775084417290241
1328771414657179649
1328766769608097792
1328765499962888192
1328759206187393026
1328722272715202562
1328638611151937537
1328636790358478848
1328616451775885312
1328615026614124544
1328414255306084353
1328410930170920960
1328410067910021120
1328409929099591680
1328408161196281856
1328407275585695744
1328404997818572800
1328399469994414081
1328398869542047749
1328396527337828352
1328361657622556675
1328359867330011138
1328311895854485504
1328272561491247105
1328271729131540480
1328271027130908672
1328269795314126849
1328257048945967104
1328254070432395267
1328222317655314433
1328030305542815744
1327923953923289088
1327571820149567489
1327319491340951558
1327317045646565376
1327310264304168960
1327309203438878721
1327307948037529600
1327305317210750976
1327303493128916992
1327292421047259138
1327290765446246401
1327289906268229632
1327288301804404737
1327272735882563585
1327198125988081667
1327166899843641344
1326946933118808065
1326928363311738880
1326926770491285504
1326910344430751750
1326901700188401665
1326804513852895234
1326581313692790791
1326578740030140416
1326548051628969986
1326543167563337730
1326442148926001152
1326410493842616321
1326398513501057027
1326199846735286277
1326185565079867394
1326129304170852353
1326121629290622982
1326079737408655362
1325865114486988800
1325862582410858496
1325861805978083329
1325860849173450754
1325823393841573888
1325823166254624774
1325820044610187269
1325809306302902273
1325759519968927744
1325744108271529984
1325742531930451971
1325717345487228929
1325682534265606144
1325460521621942272
1325448917845114882
1325439209025368064
1325439079480139777
1325438236043345921
1325437362977959936
1325435869168234496
1325434757061120000
1325155592810369024
1325143598694756353
1325058586389606400
1325054475841785857
1325050947102388224
1325049429821251585
1325047579759947776
1325045619564580865
1324783699062218752
1324779929540595712
1324776441502863360
1324765909404151808
1324750081740828672
1324736013172940805
1324695328151334912
1324656898201645057
1324639122300940291
1324630176068755456
1324383944687509504
1324374886995820545
1324374063079288832
1324373632731222017
1324293274215960579
1324267804489621507
1324061551112802304
1324058601669988359
1324052184099549185
1324046836034756610
1324045649189376000
1324044072911171584
1324040630536908800
1324039959490146304
1324039788995833857
1324038993856536576
1324038021881065474
1324037439195738113
1324011935772241927
1324011696092975105
1324011226767175680
1324006062530326529
1324004386801020928
1324004314545713153
1324003334143963137
1324002549783961601
1323951898475569152
1323920186307612673
1323905416233975808
1323897533727338499
1323861828603203585
1323658220469067777
1323657679198330880
1323651923967307776
1323650885726003200
1323650280110526465
1323648841443348482
1323647545000615937
1323644806099169280
1323634386856599554
1323632157894479873
1323543031832858625
1323540250132586497
1323332358951481345
1323327957377576960
1323325339880230913
1323324715784572929
1323286458870976513
1323267979170082817
1323180720270004225
1323144008919511042
1322960612251496448
1322958057450561536
1322957512799236103
1322956183632633856
1322955121458737152
1322954972766502912
1322622574963154944
1322621750568341505
1322440632334381056
1322429140327231488
1322238691872403457
1322236383608496128
1322231057047973888
1322230095386349568
1322229946299805696
1322217938322030592
1322217473953787904
1322217375710638080
1322199320326754311
1322093488599715841
1321880942193991680
1321880459437961216
1321878801505112065
1321877340410925057
1321864643493519361
1321836943374753793
1321834710419468288
1321731090424291329
1321668363337166848
1321491699101626369
1321479941578354689
1321474527038181381
1321368700692430848
1321325184071196672
1321112145686372357
1321042367084851200
1321006309811040256
1320785698887065600
1320777017302736897
1320761875286552576
1320759629186437120
1320758904981053443
1320757470558523398
1320754885223092225
1320749766356193280
1320743676000296965
1320723170396000257
1320706878284779520
1320704705392115712
1320667714516480001
1320665208784744449
1320652123483205635
1320651310417338368
1320650305382461440
1320649054880026625
1320643933811154945
1320611528219897856
1320379497783250944
1320342279165517824
1320336355486883840
1320311450447982593
1320300216709386242
1320281683912912897
1320279587582980096
1320278639242407937
1320277021352554499
1320088654220414982
1319974602181767170
1319974340893396992
1319969944168136709
1319969508048605185
1319909954019414017
1319894448021458944
1319707093906018304
1319693567833468928
1319662608098656256
1319577688814727170
1319561728238125056
1319556764497596416
1319554640518639616
1319517867046367232
1319516226733838336
1319300210322034688
1319225975259844608
1319224978919714816
1319194387562270720
1319180724952416257
1319180003846754305
1318978835807809536
1318937832073928704
1318846361308069888
1318844927074205696
1318837302915854337
1318831996722962434
1318788616974405632
1318616356460187648
1318593179310903296
1318591893446430720
1318591529502470145
1318589997226754049
1318588536367452160
1318581843998908416
1318575320337948679
1318550848167944197
1318549286129422339
1318469530121871361
1318467725367287808
1318249153143566337
1318246679796068353
1318223822575656963
1318216701968707584
1318212939107717126
1318190608691781632
1318156663153713152
1318111209023971330
1318107141698355205
1318104579611840512
1317895780905091072
1317885472056647681
1317882918581137408
1317848967535759361
1317782845511716864
1317771741259706368
1317771295132561409
1317545249950978048
1317544237802553346
1317543425172938752
1317541166364069888
1317536323817795584
1317486585491771393
1317486207475961858
1317189829193429013
1317188178768326656
1317186373787373568
1317178310380584960
1317125793110237184
1317080448279957504
1317019988180541443
1316799684090851328
1316793257548869632
1316792269530296320
1316792185086337024
1316790338913067011
1316776399412162560
1316763393500557313
1316718053879672834
1316702352452313088
1316690594006102017
1316657590668066816
1316433025849204736
1316414034556579841
1316412491698565120
1316410803671556096
1316409102759649280
1316407209459236864
1316405987255877633
1316405088210939909
1316404310024962063
1316403831530373120
1316401003441381378
1316355662335664129
1316327138832900097
1316319450182766593
1316318755899600896
1316317863318155264
1316295209903423488
1316251683090038784
1316069506100289542
1316067000033005568
1316056437357867011
1316056056515059712
1316055382687535105
1316053760171360256
1316053310541971456
1316051160378163201
1316038601264816128
1315993282548244482
1315932822146777098
1315723846536757248
1315723638289514496
1315708380476928000
1315705967997153280
1315704282495156224
1315676221066403840
1315630883681046530
1315570426756694016
1315333262496026624
1315242664741150721
1315208514684350464
1315205354897076224
1315204835264794626
1314883971809865729
1314834645377191937
1314597198160510978
1314592590025506817
1314589080592711681
1314554879059218433
1314545197460537345
1314543995020697606
1314543722282057731
1314519258056007680
1314518636833374208
1314516569976782849
1314514043206463489
1314498989224411136
1314483269359071233
1314479292630200320
1314442237934071809
1314281020884021248
1314277591386222595
1314276196985700352
1314275871159508992
1314275394678214656
1314274794183958528
1314272115370020864
1314270562743537664
1314268519110860800
1314264837967339520
1314263254479200256
1314260414629257221
1314259807063269377
1314259094379753472
1314245051246014464
1314226673592786946
1314191842448084992
1314181337943769088
1314174077200785408
1314120880381923330
1313900669129039872
1313881245160402947
1313875112794308608
1313874142593073154
1313864286817734657
1313863707852640257
1313844575211929601
1313836865406017541
1313823149046202369
1313820672716533760
1313818949436551169
1313807412369924096
1313758489840431104
1313715307404562432
1313539418628583425
1313536638388113409
1313535061740777472
1313533154968301568
1313529456808456192
1313528347318579205
1313515676045205505
1313514523907645441
1313512909842989056
1313512084613681152
1313507807757430784
1313501904136294400
1313493678569271297
1313477842576052224
1313456555522752513
1313447694547906561
1313434303183765505
1313405094331740160
1313396577692577792
1313396104835280896
1313152109672423424
1313150787690721287
1313145321543745536
1313139498977550338
1313131476024582144
1313094171478163461
1313053989533933569
1313033716395134976
1313027245468839936
1313024543108206595
1313024245685870592
1313023209697021953
1312989707085594624
1312778789873614848
1312777273251033088
1312774972008398848
1312749464583434245
1312748358562316288
1312723890246840321
1312684666600603649
1312680827172478976
1312675756741332992
1312470340677763073
1312469060643291136
1312468112483119106
1312464363303833600
1312459833979793409
1312435458287173632
1312081003238756352
1312064064659488768
1312063690020012032
1312062460757602311
1312061698849660929
1312052344440467457
1312007009613602816
1311997715014795265
1311988863687036928
1311982409500430336
1311975053915910145
1311949604309495809
1311946554547286017
1311901898761359360
1311729955735126016
1311729142581272576
1311728690556882944
1311725020146618369
1311710137543913475
1311699343854964736
1311689963843526657
1311644633991184389
1311584165893210113
1311564985605251074
1311378133526786048
1311376277668990976
1311370272574828544
1311369339589636096
1311356096116699137
1311327575910813698
1311292226949931008
1311282236872892417
1311223831931969536
1311221779118030850
1311004855830372352
1311002838168821760
1311001644499230720
1310998908139483136
1310983220301713409
1310978592004665344
1310965178171826179
1310919856146075649
1310906971285942272
1310897523716841472
1310871673076289536
1310859388245225472
1310855509306605568
1310854722769698816
1310602787433181187
1310575734226923522
1310557444217679873
1310497001642110976
1310256923615195140
1310254170503630848
1310251434219241477
1310227168425775104
1310161332356878339
1309920080512253954
1309919431858909184
1309914495737765890
1309560058368335872
1309559594788646912
1309559131615813632
1309556992525041664
1309518336536047617
1309515638457724928
1309509695695138816
1309482019882233856
1309415049107320833
1309409840335290368
1309183444442845184
1309181781099372545
1309163605640839171
1309158920573923328
1309157803215511552
1309153251317735425
1309137008921579520
1309090007232192513
1309066735195217920
1309047454495637509
1309027614460448771
1308836778082738177
1308834852364595209
1308832809264525313
1308832232128352256
1308822128398139392
1308821236668137472
1308820590506242048
1308819915017777152
1308808926947934213
1308807278490013707
1308806404342513664
1308804620324687873
1308798806436315139
1308798118012608513
1308797469577314305
1308795837066158082
1308794132765249537
1308791851084906497
1308790853671018498
1308789622454054917
1308786537912586241
1308783788739235846
1308781719428960257
1308781285146537987
1308776860705337344
1308776717490753538
1308771264241250304
1308769489027301378
1308685070497128448
1308641558149857281
1308641495944175616
1308458514122117120
1308445510982754305
1308444600118308864
1308443696212267012
1308442099851780096
1308433252470972416
1308428471169941504
1308343057977241600
1308322681645920256
1308308474573455361
1308307537041612801
1308306956969336832
1308305525214310401
1308304530203787266
1308294850429689856
1308098989871394816
1308098336914771968
1308098142697447425
1308095143354925056
1308081327321669632
1308080161179332616
1308074781112107008
1308071945628393472
1308066079349108738
1308064671690305537
1307963209442234369
1307960290580082688
1307704869436809216
1307700685723414529
1307696612739702784
1307693201445117953
1307692262332272641
1307685562862637061
1307678546777665536
1307675798422183936
1307671552012374017
1307664053007912960
1307663387929636864
1307662780493778944
1307659771865038849
1307657593179877376
1307643995040833538
1307618181712809984
1307605717231132672
1307378663852130304
1307375473417007105
1307013676457549824
1307013010423078912
1307011620279783424
1307009733828603905
1307007484687597568
1307007067937357825
1307006048314687488
1306995110614188032
1306994977008881665
1306992988866752513
1306991492141965313
1306988311559303168
1306987498300567553
1306986748728147969
1306978920537915403
1306960822124462080
1306958322323476480
1306924767237165056
1306918276694335489
1306917662077845505
1306899680089964546
1306895247205519360
1306874449694568449
1306873516529127424
1306873129709469698
1306848076171153408
1306664153436708865
1306658240621551616
1306655996828213248
1306654699647463426
1306654498736058369
1306652875339132930
1306651946015629314
1306650093571907584
1306649296293437443
1306647749639643136
1306645261872054273
1306636105383436288
1306625187010363392
1306620330572746757
1306618435967696897
1306616538196213760
1306608610596630528
1306518346096095232
1306516698107912194
1306514461348499457
1306510733140787201
1306296066422128640
1306295572668669952
1306294870198214656
1306292755446902784
1306272443229564931
1306271180907708418
1306269535951962112
1306263983465345025
1306254145322713089
1306204304890572801
1306197297286516739
1306158370752286721
1306157002633117696
1306148350660665345
1306138385199910912
1306136886600249344
1306104838196002816
1305905169742192644
1305901916002504706
1305900865480400896
1305899154380525568
1305898963782918144
1305897866137755653
1305896477030363136
1305893415775735808
1305891914940465155
1305891748917452801
1305891435552489472
1305889176785571841
1305887590374150145
1305796390057136128
1305793150422781954
1305785963445133313
1305562442118787074
1305560610503946240
1305547194196348929
1305545360929038338
1305539539990061061
1305535306003750918
1305529361492254727
1305526832347967488
1305481967694086145
1305423570533847040
1305418554435461120
1305415308878905345
1305201336938450944
1305197958044856321
1305111374465388545
1305096642274631685
1305094427791163392
1305079257375203329
1305076152353005573
1305035844634308608
1305035186522918914
1305034334122901510
1304844493317783553
1304843241980743680
1304841323871006722
1304835267455459328
1304731636857094147
1304730780543803392
1304727581028040709
1304726675691773955
1304724053610000384
1304722984679034881
1304715253217812480
1304714074190569472
1304713246142676992
1304445498296684544
1304442194175102978
1304364553845661696
1304360063293743104
1304336413509517312
1304334005169303557
1304332852683616257
1304331904167022592
1304134473714286593
1304133624812322816
1304125698068545536
1304122401072971776
1304121691224768512
1304116746526355460
1304115993136881665
1304091727230189568
1304088459317968896
1304084047077859328
1304082716267147265
1304079785895788544
1304078446679617536
1304062317504507905
1304050881801801728
1304048214824218624
1304047957046681600
1304046151771910147
1304045748661547013
1304031538925899777
1304031239012102144
1304022132276342786
1304002333630631939
1303987477401591810
1303986384630288389
1303971502103044096
1303969540951302144
1303770116127993856
1303764115266048000
1303761832939646978
1303760374450155520
1303754393381081088
1303735785552850944
1303717409170362370
1303661569520275457
1303636778486837249
1303634837002096641
1303634166974562305
1303611633609199617
1303603763542855680
1303602114275414016
1303568082229698562
1303395551837208576
1303363684979208192
1303355013314555904
1303297438313218053
1303277970836959232
1303275893293371399
1303262232667590656
1303249243839303682
1303046333326999552
1303034185712459789
1303031243253018624
1303024921329545216
1303021702394163200
1303021606080376833
1303021360369737728
1303019891763494912
1303009808014913536
1303004726422691847
1303004316731465733
1302999729375125504
1302996768292876288
1302992628292689926
1302992462588383233
1302985795293175808
1302985324566470657
1302984751129612289
1302922964841631744
1302917686867849217
1302910697358024705
1302903134881079296
1302902318086590464
1302894189055680513
1302886863779368960
1302874634979663877
1302689149162381313
1302662842240311297
1302641157684391936
1302599597785673728
1302598363511054338
1302593705673551873
1302591866735484928
1302585992512069632
1302585144570601472
1302578271716929536
1302576378013868032
1302575897816346625
1302573636977532929
1302569842558468098
1302568885284077568
1302563681235070978
1302560288357650432
1302335677967728640
1302324289144676358
1302322620080119809
1302321776555225088
1302321341526286336
1302318086205382657
1302309582853693440
1302303616733032449
1301970136593608704
1301967149737541633
1301966688963817472
1301961227359285249
1301957600980865024
1301952839778885633
1301949489670811649
1301947760556482561
1301946235310358529
1301942606897664000
1301940509242306562
1301937289891733510
1301936538570297344
1301931888970399745
1301915069916250112
1301915040182931457
1301905491677896704
1301891684511309824
1301882445936041986
1301864866261561348
1301854418879434752
1301835801035112455
1301834071992012800
1301799690862841857
1301578416186036224
1301571690330288130
1301561016979828736
1301543071335829507
1301484539873832960
1301484231567110144
1301484179721351173
1301479943444987904
1301470009940750347
1301437301667618816
1301230033223049217
1301228099342802944
1301226365757263872
1301221478713630720
1301220316367040514
1301217324842864641
1301216373226582016
1301211948550422528
1301197297661874176
1301195603469201409
1301180712188612609
1301167074274877447
1301128150902956035
1301094523699748864
1301074918449336320
1301067321604096000
1301065285483393025
1301046559379984384
1301035886960766977
1301035832682270721
1300860228364189697
1300829352905637888
1300741258231517185
1300726585104896000
1300712527882575873
1300525578332680192
1300520773161947136
1300517082769944576
1300504927223992321
1300501192103964672
1300474414656491520
1300470889016778752
1300469177535225858
1300465169051516940
1300462180110794752
1300455909064421376
1300426141963104258
1300379359660793861
1300378618267201537
1300376214662643713
1300365234285281280
1300350132169445376
1300132438186754048
1300129025277403136
1300111797563748353
1300110147214163970
1300108051500814337
1300106203561820161
1300102998790557697
1300091941762211841
1300090710872461317
1300088358668914696
1300085259006963712
1300084370053697537
1300074037058527233
1300049070703157248
1300043766015782915
1300038351404306432
1300025215427117056
1299797731150495744
1299784743559421953
1299782724329168896
1299779569487024128
1299778515860992000
1299417964668743680
1299413334723375111
1299403969433755648
1299391155797282817
1299387342407397376
1299381390991974405
1299377800118505474
1299377769269391360
1299374819926921218
1299372881369997314
1299368868889141249
1299365852475654144
1299280774374490112
1299262994975797248
1299047446094532610
1299044861702795275
1299044792375152640
1299040825016377344
1299036553285496833
1299023788965654528
1299018765858791427
1299006477714194437
1298900610847305728
1298709481400885250
1298708574244188165
1298686336623210499
1298662467678003200
1298661185395384321
1298644103849287682
1298601858659835904
1298538237162590208
1298494715478908928
1298297100443062274
1298292450264375296
1298281674619465730
1298281385069654016
1298279172733730817
1298240946849452032
1298196776197922822
1298175832574263297
1297975769541554176
1297957260467920896
1297927958850613248
1297919301052235776
1297883783421722624
1297813445740498944
1297590434970050560
1297516172821159937
1297430387430391808
1297268059783086080
1297267125212426240
1297257955251769344
1297252817342615552
1297244639620038656
1297232189554225154
1297230890536333312
1296874328349241345
1296872741400743936
1296864936694444032
1296862777101803521
1296862019581247493
1296849805373669376
1296845382312370176
1296843034823254017
1296841850779664385
1296839760774746112
1296836701889978370
1296832127170994176
1296788621626765312
1296726302658048002
1296509092807106560
1296506692486623232
1296503346686304256
1296500057143775233
1296497757687930881
1296497325779501056
1296488083362320384
1296487404455579649
1296475646898642945
1296424620028039169
1296368693803282432
1296363900905107457
1296147275857580032
1296146860868952064
1296126314676539393
1296125220562931712
1296121793279700992
1296120775552860161
1296119910481838080
1296107394922143745
1296081546563088384
1296078439493992448
1296061989706498048
1296020479166169091
1296001531263815680
1295957983818588160
1295799415530110976
1295794746955161600
1295777482163986432
1295776457893896192
1295774136464052226
1295763842656374784
1295763403508559875
1295759882776322049
1295758872989200386
1295744954061524993
1295699639799287809
1295679685607583744
1295677644650946560
1295676355833544705
1295674046567165952
1295672728880443395
1295639121046667269
1295417796273164288
1295415052653039616
1295414915797094400
1295414752164773888
1295413891288035328
1295413005048352768
1295400045873782790
1295395393996378112
1295382535866916865
1295340869692928001
1295285744177573889
1295276736419176448
1295037500377817090
1295032165953150979
1295031166144114689
1295029538578026496
1295029507183714304
1295028302520782850
1295024091347341312
1295023297621397505
1295019785374150656
1295007181163491328
1294987628807245824
1294956056976723968
1294703051240923136
1294699215793172485
1294698248226009088
1294676172593344514
1294668299595382789
1294668259007041536
1294640418177466368
1294631530828980225
1294628610569977859
1294616872424415234
1294594359422115847
1294311712166838272
1294308946690191366
1294306535590387717
1294300345519058944
1294299506591166464
1294295397800779779
1294261378904031234
1294250092233461763
1294189578325241864
1293949376985837568
1293945222632620033
1293940915254579210
1293933020580384770
1293887678589669376
1293827191210414080
1293610403788800000
1293606250261778432
1293584209710260224
1293576868197568512
1293572465264717832
1293571199377657857
1293570620870074369
1293562384997658626
1293525276421509122
1293509622792196098
1293464805991493633
1293421269963210754
1293256917985292290
1293254223069507586
1293248633563832326
1293245203751546887
1293208319822307329
1293202547138846725
1293162876929216512
1293130868777783296
1293125824992833536
1293122329078198273
1293108170466791427
1293107124742975488
1293102402036477953
1293058479855243264
1292887809280245760
1292878444510863361
1292854488412254210
1292852648220094464
1292845872175251456
1292820519528681475
1292800491362099202
1292778764854628353
1292740028607664128
1292720970692608001
1292485154053607424
1292481408888266752
1292356730257457152
1292355658705076224
1292353659662024704
1292119249339604992
1292014421401669635
1292003402856054784
1291758722818224130
1291713351265980420
1291652874729136128
1291413950475640837
1291396301314306048
1291383623732482048
1291381780218441728
1291370981399773190
1291364256433098754
1291350978248282114
1291290465816412160
1291235087007219712
1291233676261433346
1291065864318586882
1291061114910814208
1291033969060917251
1291028377067954177
1291018037144047617
1291017967438831616
1290988570535243776
1290928094291857409
1290884542715363328
1290671559972200458
1290626159349125120
1290565712373862400
1290309148500881408
1290263762969063425
1290248631648268289
1290238991090872320
1290238444623392768
1290226903924654082
1290225354326515717
1290204202497540096
1290203308926341120
1290141968358469633
1290136958493106176
1289808570905583616
1289806251732344832
1289776262236405760
1289543016131174400
1289530938267820034
1289435481596289024
1289266195292536833
1289258453135851520
1289221972136611841
1289194856741351424
1289194388694786048
1289188852075122693
1289176673796071425
1289163511868751872
1289116137154805760
1289072290412429312
1288859575450578944
1288814229160697856
1288800851968946176
1288785941042278400
1288785599500091392
1288753756784463872
1288560521478729728
1288555818288164864
1288511427125194753
1288497243566288897
1288464925031989254
1288464727304110080
1288451877961637888
1288416567538192384
1288391380184768512
1288178444505714688
1288175118372335616
1288174041581228032
1288170726910914560
1288170103800913921
1288164503989792768
1288163293735956481
1288150841614950401
1288144470781751297
1288134857160351751
1288095844395175936
1288095378252816384
1288089446353711106
1288029004629409799
1287806893314826240
1287805038283218944
1287802816774504449
1287786049180012546
1287784774082236429
1287784059058262017
1287783660956000261
1287782577982410755
1287779334371999744
1287775425347776512
1287772467667382272
1287727114830176258
1287666587009519617
1287657084364890113
1287444865878388737
1287444525015683077
1287443626524463105
1287442047633199104
1287440979398545410
1287437632339734528
1287437239031435264
1287436733500362752
1287425822135992323
1287425272384376833
1287424010427363330
1287413292969758721
1287412616608878594
1287411625331273730
1287348308151865344
1287087034062925824
1287081912897437696
1287061491040972812
1286695208013500422
1286693064799473664
1286692425512022016
1286691051743322115
1286685310974394369
1286657652978671616
1286582789798690816
1286579428588490753
1286537637293993984
1286366333697839105
1286361783154827265
1286340811504996352
1286339914389487617
1286329973679230977
1286329030535311360
1286322862492721152
1286310747329314816
1286309569270968320
1286286660926181376
1286285438324363264
1286284033979084800
1286283769024876545
1286283108023590913
1286228412973998080
1286217906427027456
1286217054111096833
1286001852455071745
1286001505032527872
1285978671241551872
1285977356029419520
1285974142085300229
1285960508487733249
1285951417530765313
1285918816115945473
1285911966725201920
1285889554168217602
1285854660407054337
1285854050085294080
1285811077259894784
1285642137783107585
1285640757718790144
1285636054788251652
1285635174252806146
1285631026354585601
1285629174414278658
1285616949121224704
1285601552305201153
1285598107103887360
1285595304755068928
1285593223205814273
1285492274244321280
1285271126797545472
1285264573285597184
1285252378061496320
1285248855055855616
1285244248464355328
1285235682017976323
1285210834570903552
1285129888761090049
1285102521418014720
1285101155597443072
1284890436553699328
1284888666087624704
1284886837849284608
1284884592202153987
1284882969849561090
1284880555415187456
1284785077029765121
1284780528630022144
1284772311699054592
1284549237770838018
1284548073557864448
1284547318688083973
1284544175124262913
1284539960545034240
1284527996297023488
1284524960178831360
1284524250611609600
1284522472541310976
1284521172223180805
1284519114476642311
1284518377084485632
1284509062822952960
1284505138250625025
1284479472268226560
1284478786210160641
1284469556598075392
1284463220384620545
1284452870750744577
1284450519772041216
1284449997073743873
1284448697565057024
1284445102362918913
1284199362055163904
1284188800357289984
1284187187446116352
1284181242766692352
1284179736818679809
1284179181366947841
1284178694823526400
1284166168496881664
1284163500751740931
1284148636209872898
1284142825886580737
1284106969616277504
1284105888387620866
1284042722173751296
1283801264506015744
1283796050067599360
1283786190190239750
1283733927434153994
1283732554034450432
1283723472925941760
1283716200673898497
1283713698540867586
1283712360918605824
1283680338150121475
1283437687727251456
1283436972640366592
1283432030013972480
1283430943013744641
1283423774361124864
1283421156414902272
1283420517538492416
1283325388777644034
1283317946069192704
1283308492325969920
1283307901310783489
1283274464139055109
1283075877203398656
1283071173882859525
1283061413775396871
1283006169200508928
1283004880840359937
1282987864758923268
1282965174245187585
1282964695226277890
1282955556878274565
1282769152826957824
1282765369891905537
1282765055625314304
1282760611407859719
1282759599678820352
1282756372384210945
1282754645761257472
1282753159752896513
1282752333881827329
1282751629083594753
1282747084924321793
1282743935891238914
1282743360969535488
1282743221597036545
1282734455556210688
1282699012253122560
1282685142927126531
1282593192379113477
1282585045421580288
1282584067892891654
1282583769812213762
1282534307655892993
1282353844928655361
1282353360046182401
1282352733123575808
1282351050616266753
1282350287257088000
1282347196055052288
1282346596559056897
1282343506447499265
1282262357721272322
1282261845890367489
1282193910396157953
1282035284423696389
1282027972812128256
1282027315266912256
1282025373723549697
1282024399550337024
1282020819581800448
1282018481324519425
1282016017032507392
1282014682111283205
1282013929326047232
1281942158803525633
1281842729585016832
1281611838040440834
1281542263152300032
1281517159638691840
1281506013728968704
1281295830402469888
1281291765283078147
1281291407299248129
1281290652735516673
1281290231841316864
1281287996205969408
1281286873516634113
1281286696953237505
1281285446404763649
1281284387368079361
1281283169979740161
1281283052052688896
1281280315030302721
1281249477098115072
1281150196928266240
1281143621346111490
1281142334416195584
1280930591827873793
1280921358080376832
1280899722249555968
1280898673975496710
1280887131402113026
1280805842107854849
1280802571242795009
1280784216448315392
1280781230867460096
1280779598641299456
1280770696012918784
1280770281284354048
1280737643492454400
1280723736228847616
1280722362271297537
1280583106135613440
1280582900832825345
1280576541185814529
1280572127184207872
1280569940592844800
1280568260782505984
1280562560098463745
1280559588727599104
1280558766711123971
1280544412922073089
1280543585167749120
1280524749647446016
1280524726650179584
1280502237517811718
1280484732745072640
1280483161173037058
1280475012412014594
1280460719314464773
1280457442086666240
1280457300537249792
1280455772334243841
1280418847695257600
1280211464737812481
1280205869414789120
1280192144347549697
1280174439037091847
1280168936860987392
1280162335093555200
1280056471728852993
1280049297325580288
1279827868436934656
1279826842094985217
1279817586775977984
1279814149669711872
1279813791065051136
1279810398519267328
1279754171315601409
1279678015044087808
1279487338951831553
1279481610534924288
1279476496868839425
1279472131374374913
1279466974246928384
1279455578457174016
1279455270058389507
1279454294639427584
1279451518056296448
1279436417022582786
1279367436966322178
1279117555659976704
1279103386663575553
1279090310224592896
1279088285780807680
1279082806916730881
1279080919651868672
1279080332835184640
1279076678656880645
1279075227268460544
1279074029454766080
1279029866785054720
1278969294366310400
1278968629925744641
1278960632771928064
1278934703173582848
1278933735086288896
1278776016006070272
1278774271947333632
1278773171773075456
1278770773683920896
1278770033779339264
1278767113285496832
1278766460534317057
1278765726585610240
1278764295312953345
1278762025179418624
1278761215980826624
1278756773277679616
1278752579694952448
1278751382430875648
1278722798324559872
1278716825103040513
1278712806997667840
1278679084495589376
1278677635401277440
1278606905624219649
1278395076989693952
1278393083650965504
1278391248894586880
1278391081130799104
1278388276483645441
1278385836757667841
1278383228374540288
1278383202118168576
1278381622287413250
1278381298638180352
1278366947202064387
1278362626280443905
1278360693633191936
1278358506501017600
1278350445824655360
1278300266412957696
1278299444128055296
1278294016589574145
1278289883879145472
1278285270731894785
1278265388883521536
1278244522770796544
1278227031789092865
1278201804270886914
1278020954191392770
1278020055838552064
1278005865467936769
1277996651945226240
1277988017941118976
1277943126829625344
1277933421692465152
1277918836851789825
1277882138944299009
1277876047392829442
1277674939517108225
1277668884460388352
1277668650338578432
1277665808567554048
1277663891489615873
1277658308363423744
1277625635532398592
1277594955255435264
1277585967709401088
1277519748570415104
1277444197965017088
1277300838717743105
1277267590021144576
1277262662666076162
1277260522010763266
1277202156039233536
1276949563547377664
1276946966581149697
1276942595206164480
1276875700335783936
1276603477506965504
1276601384595423232
1276596402164883456
1276595595604488192
1276592736594878464
1276589863920271361
1276588574377312256
1276588131265810432
1276585569003302912
1276582437280083968
1276577110023270400
1276575474261450752
1276574502911016961
1276570753106735104
1276569565242118144
1276557989785202688
1276553561988411392
1276538515749310464
1276494562316259329
1276494256660557830
1276485500962877440
1276466331848552448
1276464122737995777
1276454886281019398
1276432596487024640
1276415062975016961
1276225050765484032
1276222558841352192
1276217990476750848
1276215895182897153
1276214942345998336
1276205007327518720
1276197257306468354
1276196147195830272
1276195148104228864
1276191324069232640
1276189938967441408
1276176072107794437
1276073330412367872
1276070192200724480
1276067334252195840
1275861114312482821
1275857554640379904
1275850128960651264
1275846568101523458
1275843542145921025
1275842809723908097
1275813665757945858
1275738214364397570
1275709118590922753
1275707825063440384
1275671554840580096
1275664294894604289
1275473453965926401
1275471230573805568
1275468815028158465
1275463435161972737
1275460690342408194
1275451334175584258
1275424076375314432
1275402108427137026
1275380490711609345
1275379181778419712
1275345409246978048
1275125566736302083
1275124197530853376
1275123757409988608
1275120774047600640
1275103050282102784
1275098937771220999
1275088846846414848
1275012590444445698
1274983047109148672
1274759129723097090
1274725949410443266
1274702112622952449
1274584781267668992
1274412792485801985
1274408267792265217
1274406328593612800
1274401968715251713
1274400810701479937
1274395809237225474
1274362883023888385
1274353081140908033
1274246324708237312
1274046700395433984
1274043565643948032
1274040844345982976
1274001796705460230
1273969031213494273
1273895917423415296
1273852531886534657
1273851925742514176
1273851544564191234
1273831051253575680
1273691021537243136
1273683388218523649
1273681703454662656
1273680809082281986
1273680457356283905
1273675790991810560
1273675341240782848
1273674263472435200
1273668525962391552
1273635004627763200
1273634296868360192
1273625500129193984
1273625247720148992
1273622658706370560
1273622384520474624
1273542429031845888
1273539713316433921
1273539392800387075
1273538876263370752
1273533484439670786
1273331169556226048
1273321613140746242
1273319447139217413
1273316558786314240
1273316275008073728
1273313333429497856
1273312496518983681
1273294190676336641
1273291914440175616
1273290803482202114
1273289068831404033
1273285496173518849
1273278277126221825
1273277002506735617
1273274517876424705
1273265998938824705
1273228903851556864
1273171091196915715
1273127555671916545
1272989395143086085
1272963228708958209
1272958771656974336
1272956878021029888
1272952251028406272
1272932845086859264
1272924552151085056
1272808715020898304
1272594749262712832
1272592168956256256
1272590823100575745
1272552205581783045
1272446287934377984
1272202582879068160
1272200966213742594
1272200812861681664
1272199153636917248
1272198865437945856
1272192760548716544
1272182372063010817
1272130434252500994
1272081397805531138
1272080818630873088
1272063643568361472
1272062622104383489
1271881874248306688
1271878095830519808
1271866864398823424
1271860129030221825
1271523195867336704
1271511047199842304
1271507631547379712
1271505106928730114
1271505028503662593
1271501788017864704
1271498440514473985
1271492223373389824
1271479887509942275
1271478707492773888
1271465049689907201
1271419651868803072
1271393821524471808
1271392346081390592
1271359152082890753
1271142762696470528
1271136690170560513
1271134289887850497
1271133305539182594
1271132681120542721
1271132028998569984
1271130572446855168
1271118288156647424
1271113533057462272
1271111031331274752
1271110308103286789
1271107728040095745
1271107356617670656
1271102642656346114
1271067672579465218
1271063912922767368
1271062519877111811
1271056137664606210
1271055876783132679
1271053957285113857
1271052752618127360
1271051913014857733
1271051435916947456
1271050427056832513
1271039715961999363
1271037435552518149
1271036350859362305
1271035570739744768
1271019710407032837
1270996763827146753
1270775427448143880
1270775048283000832
1270768050753736706
1270755507884695553
1270752671855673348
1270740262025920512
1270734823016017922
1270730365074919425
1270664092362182658
1270653083996114945
1270634377190440960
1270590803438702594
1270429800813993984
1270426667740250117
1270422477538299904
1270415961418596352
1270409580124811274
1270409065219461121
1270377832192126979
1270272029674045441
1270058260188598274
1270053718613012481
1270015353553399808
1270012532439334912
1270002491132981250
1269962813038002178
1269961932334923778
1269934026011357184
1269909581293125633
1269870940902633472
1269685677769273344
1269684557147766784
1269684345893199873
1269670854474043395
1269667780837638144
1269667176191004673
1269665936438636548
1269665370224427009
1269664372835713024
1269660061200154630
1269645128454615048
1269609547871719424
1269592355088236544
1269577174962626569
1269573372444381189
1269564129838276608
1269511591797686273
1269320533830709249
1269319728025272322
1269305291331469312
1269302161541865473
1269300209324097537
1269298477982515200
1269294906322890753
1269292302331191296
1269286397434888193
1269280848748130305
1269266495600762880
1269249974317060104
1269233713088540672
1269231166760026114
1269230188107309056
1269225840132440065
1268979258736680960
1268965175702491141
1268962581189976065
1268928215231447043
1268824870764392448
1268822867459923970
1268822414630236160
1268819389945720832
1268782463876300800
1268604838465675265
1268601827920154626
1268598555373158401
1268581392658632704
1268565808306937856
1268523409593548800
1268492061839417345
1268460021601521664
1268443506017738753
1268410837296955392
1268255387557466112
1268246922390888449
1268245273135984642
1268242340872966145
1268238776087842816
1268236183819223040
1268214281956253696
1268212748552372226
1268212661377998849
1268210376413515776
1268203422840430594
1268202493101641729
1268094745055760384
1268093396347953153
1268054119350243328
1267856789174915074
1267855153237045248
1267841005853847553
1267764849972518914
1267736618468888582
1267735246985969666
1267713482910244866
1267710221910188034
1267525943645650946
1267522785355747330
1267519967630671874
1267513201794654213
1267510472842055692
1267509713408864257
1267505923834220550
1267496891153027075
1267496181766250500
1267478852714090502
1267478623419863041
1267446697237590017
1267389194265075716
1267373781527465984
1267372858579341312
1267149149000159233
1267147014934052864
1267126960041459713
1267125947049955331
1267122458450157569
1267052185600299009
1267046844535918593
1267016591247638528
1266803380145606656
1266801335380443136
1266793095645011970
1266792807869620229
1266791718080385033
1266790797497769984
1266790266691870721
1266425904659681282
1266402602658529283
1266398558049230849
1266391489975848960
1266362372697948160
1266297902088859650
1266285698610388994
1266114295219261445
1266114037017968642
1266087798332891136
1266085073654362112
1266081762645553152
1266081080282677255
1266077016379588615
1266076079892160514
1266073436062973955
1266071817128759298
1266070313659490307
1266029115041370112
1265984622405529601
1265979916593639426
1265955897311932422
1265950596655439872
1265931276881735680
1265923307074977792
1265734058191060998
1265718580747939840
1265717898091335682
1265667486676127748
1265666713053540360
1265665657812779008
1265603850934931456
1265602157727944704
1265589881402728449
1265569386028584960
1265568159186276354
1265566894658117633
1265560915509903361
1265558195143049223
1265555195045515264
1265552097199693825
1265517900774940672
1265517394958651393
1265354935111241729
1265353621249671169
1265353439573393419
1265349871600644097
1265348155899600901
1265346705953894401
1265345791687897089
1265343001276174347
1265339640871092224
1265337703324889088
1265337059813863426
1265334475543674880
1265332371726966785
1265320401510567939
1265320257314578434
1265318623503097857
1265313823008919552
1265304295550996483
1265272883175198723
1265267196957282306
1265265701280985088
1265264551886454784
1265263512135368704
1265233907663978496
1265218734421094405
1265218481395564545
1265192818009653248
1264970573815394304
1264954701360926720
1264948827922092033
1264941931072798721
1264932152182964225
1264924818236940289
1264836141078982656
1264824021255938048
1264823510230347777
1264808123455492097
1264788680578928645
1264781189115777025
1264770136197775360
1264768782372929539
1264588302755209216
1264433249511788544
1264433140791234560
1264431240540798977
1264260750983475202
1264255574738440193
1264254396562583552
1264253917275316226
1264251225928871936
1264249071230955521
1264247392653774848
1264233259401084934
1263929094699462657
1263900627970732041
1263899649955553281
1263897376747634690
1263896184101445632
1263895454103764992
1263893900445523970
1263892357688307714
1263887997151346688
1263886050432253952
1263885580770967553
1263872165583228934
1263870777822261248
1263869187551830017
1263866878113562629
1263864784165965828
1263854786866286598
1263782834646458368
1263776025479131137
1263762609221894146
1263757953682886656
1263748990824255489
1263532654550540288
1263532355655995393
1263528276259209216
1263525465622487045
1263524265061736455
1263502485605548033
1263492405795446784
1263445829047726082
1263386588026941440
1263324753185705984
1263180749701775365
1263180025593036803
1263179161616728068
1263178993886519296
1263176402012168197
1263175704201609219
1263173703027896320
1263169705751306240
1263167633467244544
1263166982616211457
1263166268896665601
1263164659638697984
1263162969766137856
1263161371723796482
1263147094631743488
1263142305080508416
1263138472933707776
1263133013895938049
1263130026318454790
1263051561984458753
1263051107707822080
1263050919509471235
1263046625531961344
1263045655053950976
1263044908224561152
1263024217001463810
1263017955530547201
1262978463985786880
1262805496899293193
1262802226256502784
1262802084015083525
1262800140756234243
1262798634585735171
1262784225935265795
1262783794282717184
1262778884162019329
1262771357693153280
1262770869480361984
1262767604034424832
1262744981036396548
1262742007887216641
1262737788736114689
1262737191848906756
1262701996055900171
1262699203639287814
1262697629420589056
1262694319552675840
1262687713091780614
1262661817169567749
1262637458900090880
1262636671746609152
1262435789289533442
1262415872066535426
1262414327056936968
1262413199611232257
1262405212901433345
1262299432130838528
1262077565788971009
1262072749230559232
1262056407827914754
1262051718835175425
1262051375946629121
1262050805865218052
1262047357010673666
1262047063975628800
1262045509063188480
1262044595522875393
1262043789104906240
1262042842173751299
1262041864229847041
1262027845142011908
1262017248723718146
1261956597603074050
1261910116812587009
1261909413960572929
1261908371998998529
1261907023815479296
1261725023821275144
1261722555020447744
1261720976410021889
1261717856791773184
1261716179158208512
1261715125763026946
1261714689760862208
1261714429940506630
1261713461639340032
1261710195807473666
1261687336267636736
1261664994728587264
1261661103463030786
1261659551239192576
1261351464875646976
1261350770194055170
1261330629175762949
1261330077213528065
1261325303839969281
1261322291138441216
1261321812576808963
1261318058381058049
1261317921562861568
1261315919701250050
1261314901416574980
1261300800749527041
1261261918632804352
1261248327699529728
1261212275417010176
1261163735013523456
1261162635682349056
1261036688501063685
1260967993149927424
1260955902213054467
1260955673761890306
1260955480664539138
1260849876063137793
1260634562973097986
1260632843119624195
1260627679872770049
1260626033193123844
1260601165391302660
1260593275687317504
1260592015324123136
1260588284813758469
1260581040256692225
1260524025559896064
1260522701271293953
1260520527719993346
1260517368792580096
1260487489518800908
1260485214939340802
1260439898789679106
1260269335785996288
1260268338917277697
1260249136458346498
1260247580635811841
1260247031853056006
1260245679118696449
1260243751022272517
1260230886877990915
1260150529331732481
1260149573269544961
1260145355280302081
1260125100306845696
1260117859440697346
1260098489087922177
1260077944581623814
1259885483137646592
1259883971556581377
1259882845490876423
1259874217782370304
1259868497519292417
1259834143631904769
1259824771807805442
1259802710838214657
1259801484100800513
1259800614160289792
1259800418751844352
1259762708913807360
1259735749324308480
1259551799121457152
1259547289447792641
1259544738430156801
1259542863202922498
1259540430112391168
1259437304093032448
1259392734059810816
1259218295938592768
1259211051373154312
1259210091280072705
1259202573220929537
1259198972742205443
1259195996631896066
1259195318576521216
1259186267922804739
1259185016141209604
1259180739582734336
1259132581838229504
1259025080451043328
1259000509308055552
1258999752118673408
1258998535829274626
1258983564084903937
1258976823716786177
1258975901959835648
1258972412953210882
1258834820861485056
1258822984216739843
1258822255368339456
1258820515424276485
1258816143365754884
1258815071834320897
1258813521606979593
1258811892610543617
1258809633327767554
1258798246643802113
1258797801649123328
1258781332617998343
1258714079016910848
1258711423049498624
1258675573381107713
1258657398757228544
1258459119566102535
1258458789604478976
1258457857462280193
1258454452589277184
1258444835628945409
1258431288027107333
1258428568260001792
1258427339136000000
1258427284530307073
1258424774361055232
1258420434971828224
1258418958631395329
1258411882102378496
1258410022863855622
1258313169489010690
1258312035974164481
1258100495337623554
1258090818960789505
1258072121189769216
1258071337840652288
1258063997770838018
1258061489346355201
1258057669623062529
1258056590718054400
1258051726294298625
1258049950853869574
1258045564522020864
1258017208770400256
1257975523835338756
1257973834407391232
1257963887435153409
1257950778049904640
1257948799701483520
1257937762818437121
1257915050951692290
1257751506897580032
1257747802446336001
1257746227820666880
1257745088308019201
1257737350320467968
1257735166388318209
1257733737812549635
1257733156926640128
1257724623803813889
1257723685806407687
1257723215687888907
1257712020213940225
1257710595908009984
1257694188403130368
1257651940617486336
1257588385125990402
1257550012634013697
1257377327044005889
1257371512249647104
1257363279770460165
1257361482775433216
1257350840626679810
1257347709335408641
1257339508200222723
1257336107362123783
1257331800898224129
1257315238250082307
1257314918790909953
1257298613740482562
1257250938043150336
1257226001085616129
1256998397900439554
1256976249760743424
1256972220477460482
1256961022407081987
1256940017664118785
1256918408098205696
1256912354606034949
1256905890390839297
1256635355882835968
1256634817908813824
1256626046868340737
1256624292810436612
1256622626488889345
1256615018537328640
1256562787200925697
1256559888081326080
1256290301628555265
1256287780507967489
1256285323933487104
1256282295734079488
1256280642901487617
1256276223329787907
1256276081180639232
1256274956406620161
1256273825173553155
1256273115245617155
1256263459735515137
1256258356542611456
1256244625636982790
1256215797153792002
1256199285978345472
1256189230193262592
1256180725713448962
1256138843721474050
1255935504887021568
1255925352108621825
1255902600936984577
1255897515519545347
1255882239965106176
1255857923038892032
1255852995394375681
1255800975396347905
1255800790486319106
1255800547069890560
1255800393583546368
1255800208077787136
1255796152978550784
1255795908299689984
1255795766930608130
1255795449275039744
1255795232035278849
1255776448071241729
1255728265140019201
1255574261802074113
1255569837587419139
1255568318825730049
1255567774757335040
1255563997077819395
1255563640213843968
1255562708893732865
1255561880162177026
1255561430595776512
1255557605327544322
1255556657276469252
1255555569605279748
1255554496744378368
1255549259476357130
1255548367146487810
1255538657596973057
1255531584008130562
1255530717162938370
1255530227465433089
1255528538561744898
1255527143028723717
1255523906556964865
1255523543619641344
1255519860978827266
1255519307729195008
1255474754674397188
1255468934934990848
1255447604940464129
1255414694598279168
1255414059987501056
1255193770976477185
1255192681015369728
1255192026729062401
1255186540214566914
1255185336730357760
1255174027037093889
1255170567659012098
1255166073332260872
1255165441783332871
1255157460840701952
1255073170329042944
1255069121261326337
1255051679390674944
1254824246167117826
1254823080641409027
1254812915896586240
1254804460611817473
1254803651559927811
1254800975812050944
1254795052880142337
1254784842027261962
1254728403174989826
1254707153459384321
1254689288660402176
1254463958855094275
1254436234769940482
1254434960649474049
1254434164377628672
1254432007058272256
1254431202318135297
1254426657739485184
1254426010432475136
1254408212100546561
1254406341562695680
1254403232639651840
1254400304700968961
1254399863091089409
1254394122519142400
1254390387046846466
1254366157664108544
1254112606736003073
1254099122870800385
1254085169503506433
1253749917371248640
1253739852706787329
1253725355619336192
1253715374828400640
1253710337112768514
1253707907146883074
1253671361639321600
1253612063605260288
1253602116968595456
1253560608177479681
1253559464952836097
1253386789362040832
1253377080491900928
1253374043820081153
1253373738080448514
1253360258283683847
1253345547492241409
1253316935535726592
1253316861166596096
1253316829780549633
1253239740821901313
1253020029240717312
1253011916273913859
1253011027899400198
1253001364587925505
1253000962857287680
1252983153381322752
1252877347776167937
1252824883932749824
1252653993660231682
1252639266590666753
1252620743768236033
1252514951283032065
1252291626682236929
1252289941083734024
1252266406827171840
1252258362475130880
1252195989265485824
1252172413749559296
1252152565787168769
1252128901050048512
1251913671774797824
1251913183348043776
1251911938302529536
1251903365266788353
1251889485278851072
1251888591627747328
1251887857557438465
1251832013830664193
1251820067127463937
1251566515951828994
1251553344922898432
1251550352182112256
1251548131453317125
1251539600163524615
1251537872110284800
1251536510215614465
1251535122320420866
1251415884251320320
1251217504095006720
1251214833896259586
1251214800534867968
1251204900878508039
1251185948483674113
1251180449830825985
1251171187130093569
1251168668261769221
1251065410629361664
1250851451988963328
1250848688450072576
1250845949754175488
1250843716891230208
1250843399105597440
1250839307767570432
1250822446099230720
1250821782111580165
1250816148876087296
1250814933110906880
1250814134809026561
1250808791823679496
1250703015868346368
1250701487895990272
1250497295759495169
1250495849995530240
1250476083239178240
1250446416633307136
1250388619585441792
1250364469030486016
1250344106594725888
1250340634449203201
1250290602245144581
1250161453123784704
1250152076849459200
1250138561644343297
1250137992519286784
1250133250632069121
1250129116734451712
1250127036514881536
1250124666686943233
1250114860358103040
1250102679105224705
1250101812587196416
1250101246700048384
1250099768048504832
1250089233814974464
1250084037248638977
1249981144646299648
1249978235917647872
1249750416067366921
1249735330296561671
1249734666153627649
1249734382211891205
1249721604508209152
1249682754985312256
1249671616788697089
1249662676092899328
1249654429118156802
1249615842523963393
1249368421327720448
1249367755121258497
1249367276932878336
1249364142529507328
1249004639728463872
1248994253730189317
1248991313158008832
1248980958990061568
1248971825222017024
1248971515355258881
1248966949742284807
1248900854184202244
1248898459316269056
1248866011320729601
1248865669774336000
1248683944209342464
1248676056694808576
1248675390345719809
1248674261683691522
1248669918867755008
1248667243400986631
1248666687617912834
1248664526695923724
1248634466257559553
1248562161221120000
1248528695268126720
1248497955826364421
1248497306061561856
1248307753753313283
1248306399269933056
1248272089498423298
1248225157631504385
1248191422903263233
1248190750799450112
1248188887442194432
1248184243793956864
1248166305242533890
1247946726259843072
1247945419578982400
1247922104021815298
1247909708704428034
1247904199880224769
1247902106436030469
1247901384793448452
1247850847318544386
1247823854036107264
1247803919872360449
1247761403408035846
1247592410957230080
1247584797062336512
1247578483439493120
1247559827548549120
1247547319366623233
1247505557042466816
1247441564173041667
1247239023187222531
1247223706893443078
1247220383918338048
1247219256065847296
1247217002994753536
1247215966515130368
1247215310614056960
1247185696332427264
1247184919710830593
1247173462600364032
1247158550843047936
1247157189350838274
1247122668945637376
1247079139447910400
1246864098786078720
1246859408136536069
1246857462474395649
1246856631989633025
1246827206732419072
1246805950847164416
1246797598163419137
1246792731789156352
1246498328092631040
1246494996255010818
1246467347243618306
1246465173570768896
1246150184863551488
1246149897801232390
1246140759599763456
1246136017863622664
1246134726420623360
1246133616616148993
1246098819386925059
1246097779174313984
1246068995549212673
1246013509248245760
1245991985158258688
1245968461517303809
1245767654251479042
1245767501390086144
1245766872726827008
1245749678806724608
1245735354054909952
1245690198626840576
1245686033771044865
1245669374867849216
1245646146090876929
1245629597921603585
1245586081682042881
1245584294581432321
1245420219541012482
1245416117343899648
1245415211206508544
1245410953878892544
1245390492516388864
1245372968529727488
1245328057524772864
1245310950598557696
1245267214665682944
1245058579092008960
1245056762786410496
1245055423759052800
1245010592810897412
1244980614689886209
1244975973344272385
1244975458963214337
1244942845749968896
1244934268230369282
1244933680511909888
1244931512903954432
1244929158418796546
1244926970648858625
1244925969263026178
1244925136060309504
1244924796632100868
1244924587776729089
1244906159770746882
1244905522622414849
1244904811239223297
1244904643152343040
1244863181098348549
1244711401756569600
1244707929766285312
1244688649184104448
1244687692455002112
1244687288098930688
1244682780799152128
1244681569614221318
1244681419458142214
1244676368991809536
1244675258554011649
1244674787005218832
1244654695223906311
1244648190558777344
1244609033459380231
1244602448020295681
1244601620152778753
1244579072069390336
1244542418818605056
1244333562733580289
1244332950084186112
1244324174182506497
1244314193290866689
1244295129818521601
1244294562580815872
1244290029301596161
1244148338154332161
1244147685747089412
1244147359509954560
1243974133882314752
1243973732390993921
1243972052580622342
1243966581924704256
1243962396739137536
1243959359614275585
1243896052136083457
1243894169178947586
1243885782009442304
1243871775093673984
1243869737538314240
1243868079588651008
1243623406685147136
1243618959410130944
1243617330594222081
1243614641361543168
1243612672396087301
1243609199663362049
1243606450989080577
1243604012961878016
1243602210241609729
1243601615199731712
1243599157329305602
1243571305028489216
1243561033110880263
1243554299403218944
1243548647536590848
1243493941665837057
1243474670977814529
1243473176169861121
1243472170866507779
1243455255393775619
1243454210793828352
1243428526973259779
1243281356454383616
1243280706949636096
1243279347340828672
1243278551509426176
1243274551091290112
1243273484999913473
1243268553291083777
1243268131696459776
1243264195442827264
1243263909177331713
1243263006437343232
1243260260430704641
1243259667288961029
1243256957886033920
1243243434242080768
1243219833174409216
1243218762590859266
1243218346897793024
1243201714657865728
1243198639792631810
1243177058697707523
1243176238153216001
1243175700284071936
1243165917506240513
1243149973547409409
1243140926576328704
1243092867989544960
1242911752083214337
1242910400053567489
1242906981674782720
1242905871367036928
1242903593067241472
1242897866479120384
1242892522105401349
1242887521177989120
1242884924928999425
1242875335739428866
1242868047679041536
1242836276350517248
1242790334360244224
1242782669500530688
1242751226330206210
1242730489536020482
1242545036245385216
1242543439306043392
1242542556098879489
1242540428592689152
1242539694040035328
1242537709744181248
1242534760888430592
1242523923289231361
1242518816275312642
1242518493896953856
1242505147932082182
1242491980904402946
1242490880944148480
1242473856947949570
1242470470307307520
1242469963924795395
1242438530783236096
1242416461366296577
1242410502032166913
1242368089125277697
1242331433592451073
1242174122701893634
1242167927312392194
1242159195182387200
1242156327939346432
1242152130376388609
1242151565047132160
1242151119029022720
1242142962177306624
1242130779624189954
1242130405270024197
1242130300294983683
1242129935201787904
1242111488657182729
1242100860676714497
1242041256118751235
1242039100640804865
1242038275008856064
1242005706498347008
1241791259154374656
1241790259504930816
1241762209924919297
1241758625774764033
1241753149766950913
1241734074265260032
1241731577337372683
1241458799900102656
1241453488799793152
1241452130050781184
1241448935207518216
1241441936260468736
1241441259677306880
1241440062459359232
1241438529739083776
1241438368371601409
1241433694344101889
1241432657264668673
1241431728918384641
1241429928991551489
1241429194531164166
1241427781323345920
1241426060991795201
1241425305773830144
1241424397845446656
1241423011799953408
1241420287519776768
1241419318924988416
1241417425968443392
1241406089326784514
1241405982632062977
1241405706676256768
1241404844327329793
1241351179533078528
1241333211604692992
1241316237067423744
1241079469189689344
1241076154934558720
1241072280186191872
1241070203514933248
1241067449513996288
1241065125366214656
1241059666638950400
1241059413000990720
1241059206007947279
1241028614931599363
1241024302432096259
1240989590325878784
1240956422554173440
1240951679672922112
1240944743661457409
1240943922207010816
1240943457650147328
1240932137685012482
1240918540187840512
1240725065701814272
1240723115585359872
1240721111983087617
1240716375720509441
1240713133213147136
1240661915216547841
1240556156529119232
1240520511051804673
1240369951984087040
1240364793640275969
1240363749430546432
1240360863279636480
1240358372911669249
1240357114066825216
1240354244961529856
1240346028634595328
1240343328035500033
1240330203408125957
1240299524494700552
1240271391867523072
1240267505572048896
1240265484915761152
1240243354790551553
1240242636922834945
1240239134989594625
1240193764045488128
1240143438634528768
1239985438690959360
1239980361209143296
1239978108637175808
1239977200104824832
1239974145334472709
1239937156879192064
1239892701891293185
1239862301940998145
1239854865020358656
1239831375194345472
1239643608514359297
1239637431898365952
1239632443654668288
1239574750994759680
1239524585126506496
1239505066903490560
1239500838134902784
1239469002705043456
1239206099691008002
1239199297628860416
1238895249444859904
1238788557512282113
1238548536444121089
1238547936197218305
1238544229883756545
1238542424147767296
1238540724703858688
1238538770967748608
1238534110194200576
1238529470467723264
1238527435433336832
1238526673772896256
1238526432671756291
1238525205883916289
1238524612431896576
1238523193637261312
1238495169747587072
1238487618582609922
1238381823706701824
1238174830031245313
1238125228397449216
1238082012516249601
1238072310365478913
1238070416482226178
1238069963484790784
1238022283215568897
1238019439028850688
1237982377462263810
1237821713942900736
1237817009104023552
1237816727557173249
1237814581231153153
1237812881690787840
1237812622134673408
1237808046828650497
1237801027702788096
1237799843193634821
1237794696081985536
1237778637807591426
1237776656590204928
1237762828041433088
1237657061514772480
1237633830300733440
1237609500166590467
1237434447261093888
1237433214521593857
1237430126498856961
1237409686460272640
1237401325983408128
1237400452234465281
1237389398850691073
1237371031175802880
1237352328187072512
1237347738691534849
1237294660088991746
1237082174815227905
1237080242113540096
1237079785693573121
1237038051110649856
1236972434659479553
1236932275692068864
1236678390012203008
1236664449706016769
1236662639125618689
1236659572338618378
1236633658741501959
1236633171694727169
1236340426027630592
1236276794593927168
1236275267766587393
1236255462930161664
1235989880758349825
1235988681816559619
1235980964859273216
1235950891997503488
1235948330556899328
1235905596819456001
1235892024080879616
1235884914890792961
1235882982134755329
1235876717471969281
1235870415097978883
1235643136723972098
1235642266821079040
1235640385902264320
1235638124190953472
1235588488340189186
1235581188313477127
1235543193778819074
1235542721948835842
1235538950011252737
1235536529285496834
1235519121892073472
1235518825636024321
1235504205772681217
1235503258908663808
1235241125075718144
1235226125091078150
1235180786158129158
1235154328433889282
1235150297770622976
1234901967111172096
1234894413907795971
1234863728425918465
1234855745524551681
1234849899772026887
1234818415413600256
1234802936074711041
1234780907271143424
1234757122719543301
1234754134147919878
1234545579172204544
1234538009397211136
1234501335585869825
1234456014646390786
1234402223653867525
1234152226672779264
1234108403229904898
1234104818572066831
1234104686371840000
1234089347240153090
1234079804107956226
1234071184821641216
1233737918109356033
1233460098590265345
1233308395966476288
1233280291470479363
1233279061230804992
1233102125074391041
1233087598874308610
1233070669426020352
1233046906244190209
1233041850035916801
1233019968092020736
1233017217437949952
1233002351503364096
1232962772490539008
1232957122368983040
1232946006419017729
1232897974801489920
1232733929817477121
1232727828619198464
1232602582280855554
1232592605193490432
1232591859504971780
1232591417043636224
1232590417729748992
1232583640363630593
1232583619606122496
1232538673469689857
1232382775363284992
1232380827666984960
1232375514037399552
1232373525568249859
1232372615337193472
1232372025026600960
1232369273613537281
1232367780562952192
1232365354099318784
1232363683931738114
1232363379437731842
1232258698904588288
1232257344081473536
1232221237126074368
1231982913622855680
1231982318946017280
1231974635555741696
1231919137053708288
1231858844499922947
1231840751715221504
1231474273006563330
1231469613659152384
1231277622426030080
1231202971637223425
1230877462084669447
1230836710860316673
1230824533164220416
1230824359813636096
1230771687093751811
1230515080120414211
1230409296090890240
1230293249895608320
1230292886832472067
1230152678023606274
1230046908485447681
1229996821914800128
1229790277705097216
1229741243959300096
1229684516425535489
1229427884466544640
1229322137049104384
1229099766203600897
1229079179573858304
1229066369846480900
1229060853753729024
1229044394826715136
1229043604305264641
1229042597504532480
1229042056221167616
1229008607771009024
1228941518817218561
1228679222077452293
1228672594632757249
1228380422393843712
1228374532789915648
1228374351310811138
1228372938795016192
1228341943379214336
