1328057066762760192
1328052206411649024
1328048730818437127
1328047441237716994
1328045754666070017
1328045260434518018
1328042198143819776
1328039889003286528
1328039178286878722
1328036882257731584
1322583178251509760
1270416073440067584
1270133289152643074
1270126196672651269
1268577445252390913
1263553925485137920
1263546219655290884
1254545375744217089
1254542409117110272
1254541676934283264
1254539830463279107
1254539035881746435
1253837625326264325
1229950819946115079
1206740413291339776
1206739586224992257
1206735787024355328
1206734332536270848
1206730565505966080
1206729069292871681
1205138554768244737
1192947968078471169
1192138610948165632
1179109925122957313
1179107398327422976
1179105338102038531
1179104875000598528
1179104564856922112
1179079802269159424
1179077134477910016
1179076953858592769
1179076462973992960
1179076221029752838
1178694529173602304
1178693081023074310
1178691793132634114
1178691011096317952
1178688699351076864
1177821713352069120
1177821015440789505
1177818632140795904
1177812570004172800
1177622085457321985
1177619524272742400
1177618339683811328
1177616896964923392
1177616663035949056
1177615657569046528
1177615325627592704
1175275363129278464
1175270745628393473
1175268418842480645
1175265794390929408
1172175438107553793
1172174043270848513
1172173544790384640
1172173327554793472
1172171791529385984
1172170329948602368
1167220802460086273
1167213762975342592
1161419386751737857
1161405532797853696
1161404187558723586
1161396779994296321
1161395443944841217
1161385320014893056
1160605252204277760
1160604477105348609
1160598642455142401
1157119839577739265
1157080341972213760
1157079485507940353
1157078112007577600
1157071491848179712
1157069873614217216
1156937126560378880
1155946968402685952
1155882161637122048
1155532882590519297
1155529169943633921
1155527087995965440
1155507873151107073
1155506817570693122
1155505873629978624
1155493783955488768
1154923492300722177
1154895550053044224
1154894168784814081
1154893828521938944
1154615967621795840
1154407625251049472
1154406956922281985
1154394557603336192
1153844912137240576
1153842279552958465
1153841417510219777
1153834752119468032
1153833399766999040
1153823264491237383
1153821640205017090
1153757861253656577
1153757414992359425
1153757210297753605
1153755493502017539
1153754521404944387
1153743992124825601
1153096882429878273
1153093912183095296
1153092969534251008
1153092714537345024
1152756938163273728
1152755226367148038
1152751060328599552
1152744338356604930
1152737776258994177
1152733631607164932
1152732746441220097
1152728236209647616
1152672630937391104
1152670918616997888
1152669205919096832
1152668447467331584
1152666307004895232
1152661414298959877
1151912870705356801
1151910983805411328
1151910380354056194
1151908344237572098
1151906387745759232
1151905402625417217
1151899353017200642
1151897934604177408
1151895227847909376
1151893681642921987
1151890186734882818
1151889996489678849
1151874797103734784
1151864575198994432
1151862315115003905
1151860307280748544
1151857711824478208
1151619829809524736
1151617920239374338
1151616427838889984
1151614089178832896
1151612571172122630
1151335768788484102
1151332183216467972
1151329835291152385
1151192015708856320
1151190941421563904
1151188904562835457
1151187701489647616
1151183836073680896
1150968426191556609
1150967980769054725
1150951997958500354
1150950983415058434
1150945824127508480
1150555549987217408
1149525476504772608
1149344967514611712
1149337926725185537
1149334847665639424
1149333982284328960
1149333551869046784
1148813578855735297
1148807824719433729
1148079393392214018
1148064523678564359
1148061536944033798
1147988096455258112
1147986834343026690
1147986043473469441
1147985003294445568
1147974860792049667
1147974163593871360
1147233331031007233
1147228936453197829
1147227479486210051
1146946076919943168
1146942064065728512
1146800427159216129
1146602911625035782
1146597111590526976
1146595398712266759
1146593827937038342
1146591717824573440
1146063264003981314
1146062141310431232
1146060196025786371
1146059489612746752
1146057942254231552
1146034960492634114
1144748284168347648
1144747323349770240
1143937623939002369
1142454896702234624
1142454542992367617
1142454206277795845
1142438371429670913
1142436673248202752
1142425932071915520
1142425280046338048
1142280521218740225
1141924765667602432
1141921069114241024
1141920110619320320
1141918270318174211
1141874693043118080
1141872249936523264
1141710938061623296
1141710603930800129
1141710285243322371
1141710040442781703
1141194936609624064
1141193191028404224
1141192415321186304
1141175358772977664
1141170897472172034
1139910322989522944
1139908020010397697
1139643328859922432
1139639419521179649
1139637791359479809
1139600553800060928
1139598440843939842
1139593370769219584
1139587785998950401
1139585361154363392
1137867897890586624
1137297153670483969
1134500724111491073
1134500426026508288
1134497377354768387
1134488608780509187
1134459248392507392
1134451680467202048
1134449666358202368
1134448073990692865
1133244134247096321
1133230050084569088
1132332641859121152
1132329900264833026
1132328030075084800
1132323333356310531
1127236394349473793
1127235171672047618
1127229624788955136
1127229395381387264
1127228096816603136
1127227085188227073
1127225707833241602
1126876747377586177
1126875980918939649
1126870031923654657
1126863730946580480
1116764954596716545
1116763367560163328
1116762538497200130
1116735238879752193
1116734732165947393
1116734522471649281
1116409769156333568
1116407365744644102
1116406120690651148
1114053049637584898
1114039297819148288
1108054351061438465
1108052923580321792
1106968686110363652
1106928521555988481
1106733748773634048
1106732680106987520
1106727982113214464
1099699991663337472
1099699175695024129
1099695643449278471
1099689147697192960
1099682407471595520
1096834753943220224
1095143468488409088
1095141821397766145
1092466076716277761
1092465434329317376
1092464726951559168
1092463339450654721
1092448307744514048
1092447542711934977
1073751114019954688
1073745938714370048
1073744952402821121
1073744166977527810
1071458263718338562
1071457144648667136
1071451610277138434
1071449480275349504
1071447713814843397
1066763613338312704
1066750367285866496
1066745600165711872
1066743250105630720
1066740920161308678
1066739016291295232
1066738547225440257
1066737789008576513
1066737221439549440
1066731010442870784
1066728286095577089
1064593502791716865
1064592337395953664
1064588096178712578
1064587384677904386
1064586642768433153
1064584458878271489
1064581914340806656
1064580868910563329
1064580591893520384
1063241767531761664
1061670209818427393
1061669797535121414
1061668012569300992
1061663474034581504
1061662276288241665
1061660877793964032
1061658684005195778
1054775874938118150
1054775027923587073
1054773885948887040
1054772843391672320
1053348568709382144
1053348539311513600
1053348275762409473
1053347451661443075
1051859358374612993
1051857969594404864
1046064449935814656
1046062426960130048
1045324159851671554
1045322419119042562
1045321150040068096
1045320325557362688
1043534579041296388
1043528455437123586
1043523980391534595
1043523267624091648
1027225321463009282
1027225102205771777
1027224609979072514
1027222359948886016
1023775215589961728
1023774277009645568
1023769529191739392
1023766421455753216
1023765379137658881
1023764566231207936
1017470634744532994
1017428853017411585
1009997977556078598
1001548537438588929
1001542915594833920
1000490592646975489
997331673879638017
997328317463265291
997324156487327745
997310881213054978
992801425053945859
985638724540227584
985637827261227008
985636883739836418
985632060655185923
985629559759523840
985612725916196864
985569736086999040
985564402303848448
985561052237783040
985560155407478784
978330265364914178
966021172470173696
966020284619870208
966017951135608837
964880277767180289
964879516450672640
964877257738158080
964872958438199297
964869003935207426
962229033361707008
962227338435063808
962226854068412416
962225713360392192
962223738983985152
962223314646298624
962222192711950336
962217509641490432
962210262299365376
960673982092578816
960671789125984256
960671053331816448
960666992322777088
960660854550167552
960660026334605312
951996996591726592
951993194581037057
951992098735247361
951991460311822336
943367574569537542
943359692218290176
938502978595643392
938206224885141504
938192789183062016
936616603168452608
936608274144690177
931404715031658496
927683292207501313
927682134244036608
927681756689465344
927680805421318147
927680547714936838
925485221293805568
925484679251324929
925475207317524480
925474943764172801
925474194233708549
922320570380931072
922319892677840897
922311025877245952
922308570561089536
922307315746922496
914977779560665088
914976707328856064
914976501333991425
914976173960122369
914975136893341697
914973279118663681
914973125196091392
909681721238593536
905650662410567680
900711408127672321
899973316445962240
899972610259386368
899970815852195840
899373185707233281
896781320742993920
896780794269708288
896780331365302272
896779739712638980
896779164677791744
896777352268709889
896776806933594113
896776075379920896
896774610515103744
896772946408222720
896762369585577984
895135608372424704
895134107746881536
895133625435529216
893933472632451072
893932896540602370
893351993065865217
888559181078429696
888558623626059778
879955233849389057
879955013770063872
875870070064467968
873220697841184771
873220431137910784
872955914344701952
872955252798083072
872927468193239053
827862134482731008
