1330546199716384769
1330516016544305154
1330507057036931074
1330407691865485313
1330403571595051008
1330020923009757184
1329785478497792002
1329781815616233473
1329780920484728832
1329774471356456960
1329443498463031300
1329057775326879745
1329016901133996033
1328980880262479874
1328967729177653248
1328703794754904065
1326826869824499712
1326506054474104832
1326494097801007104
1325764632129101824
1325416668055572481
1325335065425895424
1325330949974892544
1325330277132984321
1324738045933875202
1324333400375713793
1324257998391312384
1324249675168296966
1323955544814579713
1323955422240276480
1323955325620289536
1323954636450013187
1323953256637165570
1323934470630567939
1323910335477084162
1323891742467239936
1323635150261870595
1323632561088729089
1323617364634607616
1323605015022366720
1323548525045583872
1323545275890245633
1323266632500719616
1323241420438728705
1322874824071421953
1322874390342586370
1322535096952369153
1322495939173523456
1322481323139764230
1322476907443625984
1322450880772202496
1322448469190082562
1322445685690560512
1322444594793996288
1322443405524230145
1322442732212609025
1321776353763471360
1321774502812897282
1321730504089985024
1321446134502494208
1321434848569954304
1321420678298398721
1321405161508495361
1321381716565520388
1321331977438461952
1321324893858795522
1320756654690848768
1320750463587762177
1320600761286356994
1320589583440986115
1320586051778342913
1320572394205900800
1320351650398126081
1320291769611763712
1320230096238571521
1320230022272040960
1319935797261262849
1319897310294257664
1319897061722996736
1319896924812537859
1319896620708737027
1319548659432779779
1319494488717365250
1319295684554620932
1319252528102404096
1319245266885570561
1319223934701584385
1319213678630060032
1319206321619529730
1319204428629471241
1319204063217528832
1318834639205658624
1318832157331107840
1318544495621931010
1318513575531433988
1318509916382875650
1318503314158354433
1318502547900911616
1318497502434217985
1318492238788259842
1318485735524110338
1318484674612637701
1318484368009039875
1318479682447134720
1318478842940461056
1318169131657564162
1318149881001725957
1318148305117802497
1318143965544083457
1318142087137669124
1318141743334793216
1318134790231486465
1318118345418264576
1318117991469383681
1318110816139321353
1318101859173715970
1318101252287328256
1318100951316664321
1318093331872714752
1318084597817593856
1318082239800856576
1318080003918032896
1318073435235307520
1318068686444376064
1318067258011185152
1318060275539582978
1318053696010219520
1317843475459571714
1317822963538784258
1317813722044264448
1317745907748593666
1317737782236729344
1317700144662413314
1317529579263844352
1317517242171420672
1317360129214279680
1317119444066267136
1317117339876216832
1317077273388797953
1317072517257834496
1317020283128041473
1317007285189713921
1316980378075320321
1316733771891179520
1316732970359640064
1316726893761101825
1316708472956743682
1316644084560273408
1316642822229954560
1316622774589292550
1316454095700602882
1316452589270118403
1316319356305899520
1316275670222172160
1316259557736214528
1316050521485049858
1316013578281910272
1316002232215564288
1315984038964862976
1315976534776111105
1315966593688461312
1315964249601052672
1315963852429815809
1315958895899152384
1315955442325966848
1315953126881468416
1315947141496401920
1315880342767587328
1315647319476322304
1315646037814472706
1315616422110748672
1315580607418699778
1315561605116030976
1315549430653710336
1315546889522089985
1315546092465844224
1315531073053323266
1315225401501736961
1314896686636965889
1314879932208619520
1314878177165025280
1314860330305024000
1314844367048171520
1314842494941552641
1314790298455695360
1314783089042714624
1314775544504807427
1314564971498336257
1314521237209530368
1314442362983084033
1314438066069594113
1314435799727788032
1314417171808755712
1314414607067353093
1314236625942056960
1314226345614872576
1314168675209932800
1314104129812275200
1314062276995891200
1313895929708113920
1313895255205314560
1313856088161222656
1313851369447518208
1313823290650107905
1313724656306720774
1313723462544842752
1313505377477029889
1313472679043715072
1313460066171850752
1313443211067629568
1313438132042297344
1313416153230843905
1313413541362167810
1313410643442114560
1313408498324008964
1313402315706003456
1313376845115531264
1313375686623522816
1313158640690372608
1313147174989959168
1313107637622370304
1313078444603842560
1313076212558774275
1312675902342356997
1312357069446471681
1312348106101407744
1312343724672774145
1312268396231180289
1312260902012416002
1312080769959878656
1312072144122126337
1312000640428568576
1311996846957494272
1311996481943990272
1311967912706547713
1311956247210418177
1311941539946401793
1311921404992917504
1311919383422201857
1311912996059271169
1311896302527995906
1311896072806039553
1311659883788345346
1311653999431479296
1311615054081531909
1311294118463590401
1311266265315422208
1311253054272880641
1311249416993402885
1310465343823831042
1310440085259657216
1310411711485075458
1310411399957417984
1310171769467142144
1310116192347013120
1310115622508834819
1310111187162464256
1310085101888233473
1309814647373967361
1309814580562911238
1309787864243163137
1309760000105963520
1309759132036030464
1309758528937025537
1309469289695518720
1309455449222078464
1309436084514729984
1309398351889088513
1309392126514327552
1309371091907874821
1309358272579657728
1309094629518778370
1309084806479859719
1309077252123095043
1308828410056028160
1308796305372635137
1308786476210032650
1308770710005772290
1308765116117086211
1308748816112181248
1308710494199361538
1308651998514827270
1308412981366194176
1308397037713534978
1308390605932781574
1308389621462528000
1308388482239193088
1308310505035972610
1308293193209794562
1308132373360340992
1308026665738465280
1307980684531650561
1307973347469213698
1307973083236503552
1307972231272624128
1307717836039581697
1307705272824074240
1307699451532730368
1307685066793836548
1307603678958768128
1307592024959246336
1307591567352328194
1307589884287172610
1307586409109229568
1307583824377778181
1307583350505234434
1307581647529807879
1307379926853582848
1307376436819288064
1307341229550567424
1307329533041762305
1307327976179036164
1307326279037800449
1307277823296454657
1307250680139112448
1307236677857890305
1307233602996850688
1307229652553854977
1307216719253893120
1306958687060111360
1306955214839189505
1306903248205303808
1306900875521060865
1306568682424893440
1306550118737350657
1306522283171672064
1306501490840801280
1306500680253759488
1306499687231307776
1306482378148257792
1306464635843821568
1306288568675909632
1306243830996320257
1306191463223422977
1306181931113959424
1306162632349462528
1306146665460461574
1306137911948009472
1306137315161419776
1305875620547538945
1305865711194169345
1305864559190773763
1305825964216156160
1305825901834248192
1305822922271911936
1305798979255324672
1305797934257065984
1305797161859182592
1305791465818263552
1305771155781943296
1305769528140263424
1305768631268077568
1305768169819181061
1305766186559311872
1305756126793797632
1305520571665408007
1305508597711794176
1305507488955953152
1305469559420252162
1305432561817010176
1305427379813101569
1305408258681700353
1305401889190678528
1305398702350106624
1305392352840658947
1305392128286101510
1305388845421060098
1305375991829729280
1305374927768363009
1305116730096676864
1305096393371971585
1305096089188532225
1305095641132011520
1304771852829564928
1304767700082728960
1304767503164346370
1304744697802313729
1304744040017981440
1304711777339416576
1304679708651524097
1304679579500470272
1304668519133401088
1304454439198097409
1304415269742231553
1304359458240229378
1304355873372864517
1304355070629175297
1304354415306919937
1304353709451689984
1304328300177711104
1304319757907230721
1304069165184028672
1304054894270185473
1304051713582665728
1304029715829649409
1304026796275372032
1304002049554571264
1303987430412804097
1303986948885733376
1303976457048268800
1303967776436961280
1303952962822139904
1303949313421144065
1303726340554723328
1303700423279218690
1303685791927775233
1303675197766078465
1303668060360851456
1303666846386642951
1303628685178630145
1303624196426092544
1303611154330128385
1303608694920282113
1303605939187015682
1303563803766870016
1303385098666930176
1303334411291619329
1303320162767052806
1303313891867254787
1303301082848788481
1303281088274464770
1303270887165104128
1303239618741940224
1303215005123268609
1303214733743415296
1303214498098995201
1302967157593047041
1302944554388250624
1302942879262756864
1302940367902261248
1302911620012679168
1302883844312322049
1302645895763169281
1302530839180443648
1302526947218481152
1302509574058946560
1302509162706788352
1302509054003011584
1302493225437986816
1302249032731955201
1302246168445857793
1302207491820855297
1302188113779855361
1302163532218130444
1302162887020929024
1302116302656434177
1302105313307287552
1302102720627666944
1301954594478596096
1301919991864778753
1301888875162267648
1301887831107723265
1301887071770951681
1301886755407163392
1301884861938982913
1301882773460758528
1301874795299045377
1301830276109090816
1301825582993301505
1301812041007599616
1301809374013186049
1301805083298996224
1301791274324819968
1301790807754592257
1301425020560789505
1301148283251896321
1301135875649105925
1301087069498867713
1301081794683367424
1301074407327068162
1301073984373452800
1301071980574121984
1301034003344945155
1301033470680920064
1301028809383112704
1300789098555334656
1300779504340623362
1300748803746660352
1300724434190311424
1300720242901962752
1300689372572913665
1300687865374863362
1300653585802256385
1300421388499517440
1300418802685939717
1300398044525989889
1300377168204111873
1300375830300733442
1300354404311162882
1300331813190000640
1300112409424572418
1300111676067385344
1300109075443638272
1300004547553763329
1299976247154323456
1299949569887723520
1299942479735603200
1299940916283633665
1299940349062737922
1299937008958103554
1299612641514516480
1299587739256385537
1299548404419186688
1299532780737449984
1299361313739563009
1299360690990317568
1299357782932516864
1299273714043817985
1298997423381950466
1298976532925300737
1298912997771902977
1298910949609332737
1298893945259216896
1298872203958575105
1298804727556083713
1298625168097464327
1298580250121482241
1298511673926356992
1298262771423776769
1298262197714354176
1298231311996354561
1298182487508570112
1298173948333449217
1297958179729362945
1297924528085975040
1297896190646710272
1297842494189662211
1297824872291110913
1297815259105828864
1297772097373003776
1297557045265068033
1297515744352059392
1297410655222247426
1297405911154081793
1297404868374618112
1297121920010186752
1297104682041581570
1297087604005826560
1297070082896535555
1297053061265764352
1297030612184756224
1296785080484950016
1296758613260685312
1296757481851371520
1296742434630545408
1296734190466031616
1296453866175827969
1296307956787494913
1296307791322259456
1296277855106527232
1296266977552371712
1296068605843406849
1296003404594962432
1295993310780116992
1295993194216226817
1295991820778799104
1295972030399971329
1295753049231646720
1295703212549234688
1295677787244642306
1295669737263779841
1295608820597547008
1295602644954750976
1295344483664502787
1295330897063866368
1295327821598875648
1295326592713908224
1295321666814320641
1295320256999653377
1295298762298949633
1295286574540656640
1295286362858430465
1295281481820987393
1295281134012571648
1295271725974749184
1295239084655296513
1295234947519668224
1295220349735284736
1294991105230946305
1294989251008819201
1294987758801260544
1294986455828201473
1294985610730463232
1294984247321563142
1294592085325000706
1294559838865743872
1294550577314111493
1294540445628784643
1294537830367019010
1294537001752879108
1294528269820104705
1294527142030536704
1294494168111185921
1294213453100412929
1293900980581363715
1293888922003501057
1293878503499153408
1293875986283388929
1293858433146294274
1293855897412751360
1293843483082424323
1293838516539908097
1293814520289177603
1293810654114009088
1293574318773817344
1293470118156988416
1293442262131601408
1293439296028852224
1293420091749437440
1293417724807323649
1293415946086825986
1293414393615486977
1293195967580135425
1293177473404788736
1293134873771696128
1293123653014401027
1293057923589894144
1293056964822355968
1293009256996720640
1292847349660659714
1292826587776180225
1292823420472762373
1292801527828983809
1292784938450739201
1292720277978112001
1292707545526616064
1292702917502226433
1292458345786294274
1292437867004702722
1292429545681772545
1292412524613099520
1292395617193353216
1292387849354932225
1292125918543122433
1292099580671086593
1292070031086383104
1291984327652319232
1291982511992578048
1291977860714909696
1291976714881396736
1291976026793242626
1291969277063397376
1291968739517194241
1291961922158383108
1291961379662884864
1291954304446758913
1291768029030703109
1291729691980648448
1291686994234376194
1291681085005299713
1291672086608404480
1291658239235350533
1291616234627244040
1291357774266249216
1291195462314147840
1291057826387734529
1291030103397249026
1291025542309769216
1290934752074018817
1290893729868345344
1290885019611705344
1290612554906009602
1290599247272763392
1290532371729485825
1290521014275735558
1290520526021001216
1290270161212071936
1290254745945296897
1290252679713656832
1290225325050191872
1290204367384018945
1290197819635073024
1290173417895804928
1289921186835517440
1289863507186348034
1289820850166722560
1289807838592684032
1289794870639386624
1289786801700274176
1289781243547025411
1289612750163910662
1288781964003012608
1288442956584755203
1288363439237169153
1288026381046046721
1287286232318242817
1287276961002172416
1287243524711186432
1287063590701117441
1286927562380197888
1286924784211652608
1286920666780798977
1286566955462193152
1271001710991831041
1270782097347604480
1270779478839451648
1270758697975705601
1270756515293483013
1270753769504952321
1270750673596895233
1270747388727013387
1270694701012676610
1270673096911892480
1270671082630950913
1270654320862572544
1270650678415724544
1270623791278768129
1270423037813207040
1270410779104129024
1270290926687023104
1270283912460132357
1270262363556507648
1270242634691424256
1270234570605031424
1270216793139765248
1270216556908171264
1270071775607394304
1270055115911606272
1270018948847644673
1269951606889476097
1269885755326791682
1269699055896023041
1269608461924327427
1269565870537228291
1269563514986860544
1269562635600740353
1269551917639675904
1269523699318714368
1269366163043057665
1269331714565799936
1269331471296155648
1269324469517955073
1269323058159878144
1269317734598205442
1269316025528377345
1269225677988888577
1269216220693348352
1269213286203109378
1269181386910388224
1269160979859795971
1269152752535343111
1269137607415328770
1269136040456892417
1269121061351612418
1268931275483561984
1268794171961139200
1268791616115863552
1268548634741821442
1268537051646955520
1268505626717519874
1268488614532444161
1268486992897011712
1268468789957455872
1268463124492910595
1268458030678413312
1268451906097000448
1268450304233635840
1268449693673025536
1268439310333698048
1268408939017695233
1268216503335178240
1268068669080449025
1268061208743161856
1267846888008683520
1267797281752920066
1267797030685995008
1267711005464956929
1267691454597644295
1267438191545483264
1267431736670969858
1267431435687784448
1267408374322180097
1267397562442498049
1267321374030233601
1267096148734431235
1267092943296294919
1267076431806230528
1267007669388357632
1266995711603699712
1266995341607329792
1266994915868737536
1266994048876679170
1266960651424919554
1266960338324385793
1266957724530511875
1266955600283357184
1266729752456392704
1266710806709731336
1266687545150246916
1266685064219222019
1266680608337457152
1266674873000026114
1266669637107740672
1266597220201029633
1266596824380391425
1266430235072856066
1266401412449173507
1266391364687720448
1266330781367939072
1266255843592253441
1266243738197622791
1266204371890700291
1265984186101362694
1265965876668280833
1265955626686902273
1265870217722261504
1265855656147509250
1265605692745936898
1265327976331108352
1265302604793421825
1265219859412955142
1264947868973981696
1264939850928513025
1264911850270937090
1264861089797271552
1264826017924780032
1264768552705437698
1264584080663785472
1264579803727855616
1264483119391838208
1264119057277566976
1264116494243205120
1264092894316634113
1264087507815170050
1264083367286448130
1264082838069981184
1264073030692515840
1263862846489677824
1263689269366992896
1263674452228706304
1263530884411449344
1263528172181614592
1263527126105387014
1263513831428329473
1263468535650619394
1263126648754286593
1263126469095522305
1261951202230558720
1261934786014150656
1261931070926270464
1261922571857080321
1261918639890018306
1261677199570042880
1261635950427299842
1261593892274634752
1261585459743846400
1261584135614689280
1261542336657387520
1261499901097193478
1261496868598542338
1261492737909628934
1261480933129142272
1261340677146730496
1261336766394572800
1261274696256860160
1261233123745988608
1261179042767781888
1261178809438687232
1260957039578185728
1260945612540764161
1260945338136854530
1260942063467560962
1260921846553169922
1260904574522544128
1260874605910261760
1260874210303512577
1260504287941218309
1260489396601618436
1260483906081562625
1260482936840871937
1260452328139894793
1260452272527548422
1260180482932826114
1259799117984743424
1259779248254070786
1259713224577957896
1259547518108491777
1259534580752605184
1259525993385070594
1259523029912125440
1259404197780312070
1259092340527861760
1259078922236342274
1259078664945143819
1259013048255180802
1259012467088211968
1258670273743577088
1258657684133314560
1258419687655796738
1258406192386195459
1258378661318795265
1258347512244498433
1258291382529089536
1258264320292478977
1258255917717393408
1258252046538506240
1257987661861498881
1257984919176794112
1257984243847663616
1257978018238091264
1257966945996959745
1257950976037621761
1257897846965022720
1257731549350391810
1257683048243408901
1257655933137752070
1257636083195469830
1257555132021002240
1257549255935328256
1257536530534588416
1257368978596511752
1257366868706365440
1257364754009591808
1257362567636320260
1257346742321848327
1257344469206208519
1257301950749499392
1257273640925589505
1257270907854176256
1257254220840882177
1257252191359778817
1256942453564665856
1256917575671312384
1256902280227418115
1256901822033231873
1256899094057848832
1256896566092275713
1256895942030176256
1256890163193499648
1256877359757553664
1256872215552774144
1256831802062147586
1256826802959310848
1256824057237868545
1256823211297132544
1256609218892709888
1256604113300647939
1256471692441837568
1256455085921468416
1256278187803152384
1256169602502979585
1256099508485685251
1255908094401339393
1255903928694108160
1255816726639337472
1255511414929850370
1255504325801058304
1255371852307927041
1255371409729126400
1254808958767755265
1254789104580976645
1254467466408779781
1254335015044788225
1254327159721615361
1254325597926567936
1254299701957898240
1254299647138336769
1252990089359167490
1252920940662386688
1252843219324289024
1252656621425242113
1252621791714897924
1252585002224676864
1252581435585646593
1252497775100440576
1252496249585983488
1252169537128067072
1252151020232286208
1252133937289334784
1251881347175481344
1251870703613145088
1251859500988092416
1251832359780904962
1251831716362309632
1251768338365071361
1251465873677680642
1251461920562876419
1251408175716171776
1251404461504819201
1251150848068968455
1251141907918405638
1251139533262827523
1251027894433771521
1250771120992600066
1250753093366472704
1250698805499969536
1250689826589782017
1250657584568139778
1250498455300009984
1250406112471289856
1250113803364122625
1250051913716039682
1250044584068927488
1250034257818312704
1250033967056564225
1249930360315506688
1249921229105975297
1249921102601576449
1249920689366155269
1249770344929325061
1249708534754766848
1249686241529843713
1249676661131337728
1249657490096050176
1249573723843096577
1249572510716186624
1249440506804760577
1249438114356969472
1249434833647849472
1249346955769069568
1249344416734523393
1249227496429457409
1249010986301812736
1249008812402462720
1248994214836228096
1248993483311857664
1248979865832833030
1248916312031522818
1248883721471582209
1248882260385783814
1248848352302661632
1248688610775195650
1248632400273276929
1248535514652655616
1248485953183744000
1248360252707241984
1248358607495680000
1248128447475585024
1247958436886659072
1247876724362080256
1247830449826619392
1247791568381071366
1247779129610493955
1247776340964564994
1247764708574158848
1247761202630914050
1247758050531803138
1247563058014072834
1247460075951640576
1247428290777735168
1247385439238934529
1247173674794278912
1247166009808572416
1247163257195876353
1247159078020714496
1247147760287010817
1247146959212662788
1247110095449681923
1247109948112113664
1247036318393106433
1247035875050938368
1247033293008039936
1246878351974793216
1246873167659843584
1246848843351642112
1246844657658724352
1246723979701710848
1246699495343022081
1246695704254275586
1246541981389479936
1246525474253107201
1246523307182059520
1246522872937373697
1246513791766069260
1246512105454436352
1246479495265058819
1246479296589205504
1246449288520929282
1246437308502401025
1246317565334306816
1246120546007306240
1246118674705969153
1246117762847485952
1246115264732622849
1246093864307281923
1246093086494605312
1246056947490512896
1245945653898801152
1245604176324780032
1245603116197675009
1245602089436241920
1245385406763261954
1245342560060502016
1245258003491610625
1245239188959531008
1245079688009011200
1245074925481689088
1245055183215722496
1244940183088201728
1244910672917327873
1244681014279979008
1244667349401124867
1244653583070457858
1244589515357868032
1244570144505884672
1244569180365455360
1244541011948257280
1244253695262388226
1244163700774203393
1243941478432301063
1243822699811463168
1243822182230183942
1243578210631086087
1243574548429078528
1243573390050332672
1243571127193964544
1243559339748519936
1243443515020869632
1243401038758957058
1243243189969928193
1243236041646985217
1243235314853761024
1243232992559915008
1243058697653243904
1243044025516445697
1243043488179957762
1242900073991639041
1242899598122733568
1242898656174333952
1242848185900347398
1242766924318007296
1242764701047508994
1242721732810518528
1242695736153669632
1242533984480845826
1242453494910468096
1242450493139369984
1242440308329046016
1242420532055691264
1242393890709057538
1242393191069798400
1242339119943933953
1242314597924655104
1242313264517677061
1242159731839356935
1242012881564008448
1241992313536045056
1241985494470103041
1241942116973948928
1241941590685315072
1241940449369026560
1241812299146395648
1241749739416113153
1241748543414517761
1241733491013771264
1241718919980699650
1241713985138741248
1241713902469050370
1241710911070408704
1241672931496742912
1241672776731078661
1241671549662289921
1241671438462881792
1241644338548883456
1241594583894482955
1241594005671931904
1241409688471625730
1241313875670138880
1241305714959585281
1241242712101158912
1241225206909157376
1241222570650644486
1241028462392954882
1240996687809638403
1240883549533646848
1240882727190024193
1240872829827989507
1240864967143743489
1240857119479353345
1240851531995348993
1240730719405477889
1240691729059033091
1240654330723622918
1240602122929856517
1240601457369313281
1240596615406030851
1240596345007689729
1240590775466905600
1240589802803621888
1240573123302281217
1240573112619421696
1240553850672541696
1240517170460647424
1240493332708515840
1240344250828484608
1240335356324540418
1240257418774245376
1240257033619664901
1240175480847790085
1240128515254738945
1239969785556819976
1239953414655594497
1239799286688182274
1239606978415980544
1239600984625561600
1239594741466947584
1239538668164894721
1239535183709310977
1239531982293331968
1239520578207285249
1239520257066201088
1239486189771436034
1239478960339091457
1239399911839297536
1239265949007544321
1239109189789601792
1239107928054853632
1238849092974829568
1238838626210865153
1238836932051787777
1238832916001476609
1238826917874118657
1238820183524835331
1238803425019609088
1238732109872656384
1238725352844713984
1238717235956518912
1238675840298147840
1238549551314657280
1238483468155322369
1238428650845790208
1238422687606665217
1238400467211710464
1238358382358061056
1238127233325129728
1238096027099394051
1238082365932498946
1238079940156747777
1237959612906627072
1237959404730769408
1237733905806946305
1237717415468752901
1237693693210939392
1237623575575580672
1237600443041058816
1237599481303986179
1237597762880851968
1237595362065444864
1237406771066503169
1237378359249661953
1237374588226392070
1237354960498679808
1237350287154630657
1237341584557047808
1237288608316280837
1237063306155683840
1237059427762688000
1237011818834350080
1237006914409512962
1236944691188232192
1236937170906046465
1236869382044708866
1236649765070225408
1236649190731571205
1236520488693665792
1236375346376630272
1236275348452540416
1236234478051184640
1236214538128650245
1235984617762512896
1235964179300958208
1235962837815758849
1235856862131580928
1235831366291357696
1235803873505230848
1235802940947836929
1235764113428578307
1235764028724649988
1235614052958613504
1235495413869731841
1235489773952745473
1235486294421024768
1235457334475923456
1235431346685849600
1235246023166922753
1235245791444422657
1235226265470136320
1235073124447580160
1235071525285285888
1235066830563053568
1235054539746598912
1234767519749046273
1234758429501083653
1234736265787871233
1234711477841346560
1234700855514816519
1234336411672707072
1234312363379240960
1234155720527867905
1234122027839217664
1234102626486087681
1234102190223970304
1234089994857242624
1234060661921067008
1234060601598644224
1234053347080056832
1234050697282220035
1234044863043104768
1234039667432943616
1234038037341929472
1234014870120607744
1233768911151104000
1233713448770359296
1233702767685926912
1233701150286843909
1233700491802140672
1233690664367468544
1233685473115111424
1233679978149154816
1233673699040976896
1233670221291868160
1233662983114383361
1233658906804658177
1233636757586903040
1233448995512561666
1233232496445337600
1233109308939931648
1233108376982298624
1233101683065933824
1232974264325701632
1232922154980663302
1232884205895458816
1232872101477924864
1232871502074150912
1232714620177010690
1232714218962477058
1232714200989855745
1232704554807877632
1232652861403582470
1232652202851721216
1232640443059322885
1232630954335715330
1232594341010407424
1232585988939010048
1232578374297481216
1232564948498149376
1232540079781888001
1232537578403819521
1232536951045013505
1232533716896907269
1232525542768832512
1232525481464872960
1232525378775744513
1232522694354034688
1232364745459548162
1232362076321923072
1232355618687635456
1232355440274489344
1232346412051881984
1232345897389834241
1232340430563397632
1232339957538119685
1232339815389003777
1232323006019457024
1232307808420421633
1232303136234065920
1232283414599913472
1232278197040898049
1232277353327292416
1232191032311394306
1232186078775263232
1232172987312328704
1232153718071496704
1231998624977960962
1231972340667494407
1231865921662095360
1231858011154440192
1231811047813574656
1231800900508934145
1231778801182363649
1231773970095013888
1231640496440655873
1231636964043939840
1231633063236341760
1231424234804699137
1231421571769696257
1231100002895724549
1230942859160768514
1230931829936488448
1230931528965926912
1230768455277613056
1230733704080658443
1230721103049347074
1230709786745851904
1230486398026649602
1230450314785898497
1230425624436559872
1230397867153489920
1230397242902601728
1230396721764560896
1230395581849165825
1230345196778463237
1230337649422012417
1230337289026404353
1230336295966314496
1230335456476352519
1230334189033017344
1230273400989351936
1230149558270738432
1230149299469615104
1230145201089347584
1230097850731659264
1230049201821667328
1229989795289600001
1229724859107696641
1229673552527290368
1229424821936828417
1229424686318129153
1229279065003061249
1229277768740790272
1229259712878657536
1229257493961773056
1229256335671218176
1229252081162153985
1228942981748514818
1228935134587392000
1228878188895338496
1228641939622285314
1228628785831874561
1228627209901838337
1228620944354107394
1228550485885370369
1228538719008747522
1228532589318656000
1228325769765584896
1228288854211190785
1228288417970049024
1228287752543686657
1228025018308857857
1228021874111598592
1227993161047269377
1227983066339123200
1227891635259707392
1227890435122577409
1227816164656418817
1227657178464391168
1227656079560953857
1227653478123630592
1227651148951117825
1227649098997628928
1227647497507495936
1227645055663394817
1227606249451278336
1227535742076764161
1227534538248617985
1227529915509039104
1227521424371273728
1227433772309786630
1227252258561241096
1227250942325772288
1227248572468518912
1227165291903275009
1227143212990550016
1227117620446412801
1227103200714452992
1227101667964768257
1227068748840030214
1226933219909459982
1226933091685392387
1226913553296154624
1226913141906272256
1226886548903251968
1226886406384963586
1226879526594076673
1226775607339388929
1226747611840827393
1226747077654237186
1226599236654907393
1226594238030327808
1226447323909087232
1226436130595164161
1226400999490772992
1226370098480312320
1226362459641892864
1226136233631334400
1226126709033820161
1226032449802526720
1226031362064318466
1226026371752714242
1226019089727901696
1226018316847730688
1225777556026081280
1225726982085734400
1225725511160057856
1225657666095108096
1225644159337254913
1225626541456887810
1225626208265617409
1225482184556994561
1225455334841450496
1225416845143855104
1225416505820471298
1225394311262433280
1225283970109145090
1225113949202309120
1224923911860568064
1224919123005587456
1224654390797058048
1224626589033365504
1224579592259698689
1224396603458347008
1224381993766404096
1224307332336607234
1224290235833434113
1224287492410445824
1224285139951218690
1224201422876491776
1224191525267103745
1223828198498029568
1223653482952970240
1223650360843067393
1223622416502419456
1223581467474685954
1223580110109855744
1223529810044932096
1223502473966473216
1223501090391388166
1223500534931288064
1223499481741611008
1223498806966095872
1223498521715728384
1223496556289986560
1223477700729270272
1223295677679058944
1223276023875280896
1223273784628695045
1223220967146541056
1223114349960581120
1223081041730011139
1222934933900951552
1222927349705895936
1222926935719727105
1222925561149788161
1222921974201999360
1222908330110152704
1222908160127594496
1222894263001735174
1222889405221724160
1222849724341866496
1222743751312822272
1222719893956513792
1222582399826976770
1222481946195836928
1222469055505928193
1222412336503250946
1222363907290828800
1222224821750091776
1222201498798456832
1222172413871476737
1222072173054922752
1222070227887722496
1222032927149551616
1222029731681320961
1222016197245505536
1221800138064134144
1221795790449934336
1221795227326910466
1221766755158126592
1221715368139354112
1221703592802865152
1221663311109869568
1221660475026313216
1221486061873811456
1221480607563186176
1221477199691145216
1221463609147965440
1221462172443656192
1221436727371255810
1221348934968172544
1221338531160682496
1221301559205613570
1221301051195904000
1221131718431780864
1221131538437459970
1221087982863691776
1221083669768613888
1221025013895090177
1220973828739780608
1220964206398164992
1220959322990993408
1220957125561577474
1220955280847986690
1220765671048409089
1220749473195757569
1220339132670472193
1220338168760692736
1220288778410921985
1220256868943192064
1220203910654115840
1220199845199147008
1220036405021167616
1219968341399355394
1219917317296943104
1219900636608643072
1219826091994431489
1219823609453015040
1219673600833122305
1219673570739027968
1219666128881909760
1219658479339634688
1219655435944284160
1219649990005379072
1219646455943553024
1219629847863087104
1219605281715306496
1219561967045640193
1219550878127906817
1219528041749082113
1219524568408186880
1219502933097603072
1219132617448030209
1219128475354681345
1219123509810434048
1218943148422041600
1218923298928513026
1218892029423308800
1218855535916634112
1218849479115202566
1218812389946060802
1218780079578202112
1218778662289326080
1218767285696860160
1218764773451431936
1218528145919242240
1218427412913905665
1218421907713855488
1218417267634868224
1218411475494146048
1218221970145316864
1218221687927443456
1218221337887625218
1218203350748954624
1218193624464154625
1218193399628451840
1218186423896903680
1218143443240636418
1218109781791035392
1218038572474912769
1217853504129077248
1217812397735309312
1217767709036834816
1217703720617537536
1217653310481559553
1217455654128050177
1217124895500357634
1217115880594624513
1217077075065982983
1217076676653273093
1216960357878550531
1216953631036997632
1216924410650587138
1216918829516742656
1216758854110699520
1216755253233635328
1216753878961573888
1216384403275907072
1215938214197747712
1215904275777253377
1215893012032540674
1215892059166408704
1215556107231318017
1215507711481151489
1215479084286758912
1215274403518279681
1215274306336251906
1215195877641375744
1215147641136283648
1215143201004089345
1215117926325317632
1214972422236979200
1214946965613449217
1214937674554826753
1214876595736825856
1214870460606738432
1214830914238201856
1214810528540790784
1214766079081189376
1214624959378518016
1214620503677079552
1214610632676265984
1214436140230381568
1214193320701964288
1214150252233494528
1214047937115967488
1213892704842551296
1213892300037713921
1213890725777068032
1213888499796987904
1213865918482153473
1213859916454064129
1213858366155456512
1213854683938246656
1213846790631374848
1213840974746570752
1213837533756317697
1213836503371137024
1213836433066098688
1213836191948140544
1213818036085346306
1213811649460629504
1213807886016450560
1213769915355688960
1213757489532944384
1213751134269014016
1213749729563037698
1213749159880097798
1213560197626486784
1213373420194455552
1213085788360982530
1213028661747544064
1213027463652986880
1212996675540680704
1212765271791788033
1212741126769147904
1212599881312817152
1212598626863570944
1212273101888729088
1208456861814575104
1208364038494679040
1208321447917236224
1208316786808102912
1207632905247309824
1207556296771166208
1207552245564182528
1207540482651381760
1207522816519593986
1207302994510962688
1207300105654734848
1207180211076227074
1206880040157233152
1206831430438809601
1206813238735671296
1206797998992302080
1206553899726860288
1206520226260512768
1206445169295278082
1206441670528528385
1206433427009892352
1206431929530277888
1206278189435146240
1206138597599875072
1206119317428830208
1206094653600227328
1206094642640490496
1206094621476032512
1206083630222790656
1206080189115092992
1205832274517929984
1205716268017311744
1205692355828797440
1205485037631631361
1205467112837242880
1205457186131832832
1205385121626505217
1205378795349430272
1205344078306529281
1205332856660213764
1205142398633947136
1205138671076364288
1205075944240644096
1205052671092084736
1205052580914577409
1205045329013329921
1204997887408529408
1204967641363841025
1204802885482975232
1204786117880532993
1204785334703267841
1204782310312296454
1204632472186544138
1204632286294994944
1204400982878126080
1204318557263151105
1204317912825126914
1204292827812958208
1204267565758832640
1204261813002616833
1204245034901499904
1204065306563563527
1204040810146095110
1204037183717412865
1203933707976839169
1203872058955841537
1203563817738747904
1203561176350617601
1203550292278689793
1203325785592848384
1203325604717682688
1203325506197655553
1203203490077528064
1203190799879421953
1202798850970284032
1202488043476635648
1202487883694628864
1202259140086784001
1202220753568989185
1202101175320924161
1202068344993566721
1201376388781002753
1201372017481650176
1201362217926455296
1201360894099279873
1201093088267010052
1201045255321030656
1201040575505453056
1201036798924689408
1201018200470671361
1200991714934001665
1200833717473689602
1200813461325803520
1200804047218851840
1200803222283157504
1200748769387507714
1200741182743048192
1200732452412461058
1200687404547371009
1200684763943583745
1200682884308164609
1200678194094825474
1200661473208356864
1200631598489595904
1200629648276672512
1200446214413508608
1200445754789117952
1200444704023695360
1200444523307880449
1200431584287039489
1200349090619330560
1200346019461881856
1200336276282458114
1199916530647158784
1199896798887694336
1199753287534202880
1199752080526733312
1199751971265073152
1199731709853388800
1199730822766444544
1199588700612464640
1199566764440309765
1199552024192401408
1199549009884409856
1199546920307433472
1199371386860396544
1199371211509092352
1199295346834173952
1199284067016966144
1199243717023956992
1199197777089024000
1199196757093044224
1199183027839987712
1198625182572630016
1198603218088914949
1198563583501594625
1198560201961426945
1198544932283322369
1198544341116968960
1198535351347793920
1198534862308663296
1198499289019760641
1198492497267134464
1198218364348293122
1198202353091899393
1198186692525645825
1198186299909259264
1198115947149611008
1198115800067928064
1198110125124276224
1198105794534760456
1198103833638928385
1198084236353269760
1198080080636854272
1197945442715099136
1197941528695455744
1197493789725622272
1197470967708041216
1197443710805405697
1197421302539096069
1197419988203651072
1197418850788106241
1197378240068956161
1197206008633774080
1197187632884633601
1197101269371875329
1197093879092105216
1196986859752026112
1196809045987876867
1196779448223223808
1196761179323920394
1196648540736573441
1196409383363592192
1196077573031235584
1196019967101063169
1195967074754891776
1195964096497123330
1195959496088027136
1195950921634603009
1195711317253840896
1195667553357647873
1195665877103984640
1195573771219828736
1195345759606124544
1195331709299871744
1195330786255179776
1195244143519260672
1195219875456794624
1195211561436110848
1195192038410440704
1195037534645932032
1194970270332682240
1194969075257991168
1194935097863983105
1194934146797207552
1194907512161488897
1194494991306874880
1194264938832973824
1194234110446751750
1194208896220401664
1194198902158721026
1194197980569452544
1194176143877754880
1194153713016852480
1194108848375762950
1193883441659437058
1193881254212431873
1193880135016972290
1193830439334469633
1193809419638722560
1193426837285699587
1193405187752419329
1193389259618570242
1193389070933618694
1193383988372467714
1193377552498249729
1193363230229315584
1193203749461745664
1193171373943771138
1193134767526440960
1193076118481326080
1193063020408082432
1193034940213948416
1193018057989525506
1192876384168763392
1192824989642371077
1192803667721605121
1192759926432468994
1192749062379859970
1192690980593385472
1192424726972395520
1192323922445754368
1192099854920536065
1192060691915476994
1192057597316104192
1191982901388292096
1191938007567351808
1191937177061646336
1191925491344838658
1191916540267876353
1191756302881411073
1191697976558669824
1191686013631881217
1191638245651542017
1191620843551391747
1191613671849394176
1191610447532707840
1191594732171841536
1191588595775111169
1191584268377411584
1191404398670307328
1191403188370341898
1191344433544871938
1191342559831838720
1191252147851034624
1191237782586265600
1191219027906945025
1191217938826584064
1191060804964995072
1190911170120519681
1190910576001597440
1190909092887322626
1190903352323821568
1190901398122053632
1190896130395000832
1190893046004502528
1190890262538547200
1190889426081075200
1190877814578302976
1190877678892539904
1190645929109422082
1190534328284958720
1190532935612370944
1190532617562550274
1190526645565706240
1190525173939630080
1190506769836982272
1190496521462005760
1190492991753863169
1190491817201917953
1190489000651284480
1190487302163689473
1190129494138314753
1190127616813985792
1189944371270971392
1189864851616583680
1189838630862278657
1189826372824264706
1189743318164357120
1189513824350552064
1189509648371421184
1189509583678476288
1189472878527311872
1189465751385542656
1189419954438721543
1189400127695278081
1189395367093137408
1189134655603142656
1189091807021297664
1189058887179046912
1189057940998643713
1188854394558697472
1188847627640553472
1188701450383196160
1188655068909670400
1188358897834192896
1188358085129031680
1188348830044917763
1188321188499484677
1188131891821580288
1188041103066517504
1187950321848348674
1187944435113267200
1187932763556478976
1187677182669115392
1187667426315362304
1187666632392396803
1187637862541324288
1187613454871347200
1187565816281096193
1187387039324336129
1187386859065729025
1187380005422145536
1187353886622810113
1187339452336619520
1187304008416780288
1187303101885083648
1187298426892898305
1187234371624792065
1187226627308015617
1187067498455109632
1186971921075716096
1186949612394831873
1186941586443161600
1186924541143990273
1186880785250312192
1186681833095745536
1186616682405453825
1186615634500603904
1186570724640583685
1186556648141099008
1186519991769653248
1186517445827153925
1186515153698709504
1186513653966802944
1186313426446028800
1186297673948680193
1186226185195245568
1186220436247334914
1186170854599585792
1186149833968500736
1186149176888811527
1186142025189478400
1186137946568691712
1186130359743705088
1185973288796770304
1185971078671167488
1185857960884326400
1185795865450971136
1185786183764168705
1185786022627401728
1185784933609955328
1185514692350898177
1185475844292014080
1185475183668158465
1185428103683661824
1185180710283333633
1185141579381538816
1185090087761002496
1185072969258651648
1185065541762895873
1185055911024496641
1184888377805377536
1184875372669616130
1184849993040973829
1184827250333536256
1184797491608178691
1184783357311217664
1184688362541600770
1184527768425508864
1184514723015868416
1184509121690660864
1184504695139684353
1184487308189298688
1184465930618687494
1184465514325663747
1184383483403091969
1184349529023246336
1184344973388341248
1184340221153800192
1184151845230399488
1184150793953218560
1184150431573786625
1184116352585523200
1183975861654917121
1183770923360325632
1183716539184214018
1183635284308529152
1183626440291565568
1183602359416569857
1183584974785544193
1183581274570547201
1183400979028332545
1183337696254558209
1183312565092274176
1183307736420716544
1183289238437027841
1183276328037965826
1183275112469946368
1183272753790513152
1183268694488518656
1183249848872472576
1183027963786420225
1182983458806628352
1182913727009476609
1182883598891831296
1182688733004328961
1182688336491663360
1182687333579022336
1182639629129830400
1182579116198907905
1182576928521277441
1182564521258315777
1182543882510204928
1182511139600642048
1182509350927175680
1182349519343669248
1182339945777655808
1182323324816244737
1182263651186565121
1182258028201906177
1182246236012736513
1182231249714216960
1182198412596264961
1182177556981698560
1182171194260254721
1181977298125221888
1181911946091614211
1181911648115683328
1181869103734067208
1181850709353828352
1181804934947196928
1181796384510500864
1181795935875207173
1181794712010858496
1181787477348093952
1181770969922170880
1181639142439997440
1181553193315995649
1181552760388378624
1181551748701286402
1181502014179561473
1181499835670622209
1181494433704923136
1181487620980764673
1181480317531480067
1181479120305131520
1181469886326829057
1181464533929361408
1181441036024860672
1181439922160328704
1181439013367898113
1181409688480432128
1181252226716585992
1181249293069348864
1181206897019371520
1181154682401505281
1181154215990677510
1181153631241830400
1181139491664171008
1181063168447021056
1181062409898708992
1181060792130523137
1180887717896261633
1180793120234983424
1180788915403313152
1180540538870648833
1180527266326970368
1180485165451075586
1180477978959990784
1180393018894905344
1180391479241392129
1180346854958985216
1180143758207143936
1180107078410461184
1180071223637659650
1180066629234724865
1180064737897246720
1180062763374104577
1180012665181048832
1180003955117412353
1179985931991826435
1179980875141771264
1179979422931144705
1179817513116241920
1179808979376996353
1179802624108843008
1179784220224315392
1179783706661179392
1179749494151204865
1179740085849210881
1179719457377112064
1179712285742260224
1179659664671117312
1179641586491117568
1179455195975159808
1179443066140160002
1179439322287656965
1179399090754465796
1179397855003500544
1179397168416862209
1179363603662753797
1179363407448936448
1179287416827498497
1179276409690304514
1179276240924155904
1179242442710802434
1179236585449119744
1179119991016214529
1179048137291227136
1179013615958937600
1179013035744038912
1179001507275886592
1178947426511515650
1178894934620786688
1178894128853078016
1178892823749222400
1178723513512759296
1178544936972455936
1178523878529720320
1178506383756365824
1178328299166003206
1178276125367128064
1178270687200346113
1178270223897509889
1178268760920055808
1178228781040844801
1178224495401881601
1178214186494627842
1178209668813877248
1178207884670164992
1178204552836866049
1178171867015704576
1177920249439539200
1177884956720123904
1177872069880475649
1177852176393220096
1177807968567300096
1177799697483718656
1177643468799139840
1177613368401649666
1177490325780099072
1177445975360557062
1177443488687767553
1177425825404047360
1177308456753094656
1177256967330549760
1177239133997039618
1177221837018685442
1177122336727691264
1177115914539429888
1177104317238538242
1177078073130270720
1177061896119189505
1177057267478384640
1176926406506250240
1176921013654736896
1176919007435214848
1176912268895744000
1176903672275460096
1176787623341223936
1176725967991164929
1176557378587656192
1176555016691142657
1176534696798220288
1176534623871893505
1176528535810236416
1176454886872895493
1176384373932711936
1176379873595576322
1176368567568060417
1176359726616985600
1176338175666425856
1176171696736198656
1176169132045111296
1176131862726504454
1176121052545482752
1176092484369170433
1176084034847268866
1176076508495896577
1176010704291106818
1176001853789655040
1175841626872107009
1175841132602748928
1175840584512102402
1175840299811135488
1175839455925522433
1175839157530152960
1175838099214962688
1175836864260927489
1175833888221880320
1175833375971528704
1175832773480763392
1175829832371822592
1175829117628903424
1175828944894877697
1175826780009070592
1175825979840708608
1175821032873025536
1175798987082747905
1175797534595244034
1175794704811581443
1175742563732484096
1175730121245773825
1175724686174380032
1175710543241338886
1175709536881000448
1175692396194975744
1175689291394977792
1175670650381328385
1175640678715383813
1175459025409859590
1175375095277051905
1175317612110049280
1175316644664680448
1175301076192350209
1175297053980676096
1175048311100690433
1175044834840567808
1175038666063745031
1175011498453688320
1174996938535530497
1174934195010854912
1174909300797407235
1174905367760818177
1174904354630881281
1174776910670225408
1174669659817119746
1174560056823566336
1174553762809012224
1174552933075017729
1174387913049747457
1174371963575447553
1174348456254562305
1174265783259750408
1174264919350501378
1174264216259321856
1174264036856401920
1174234137428975622
1174210883301629952
1174193580132458497
1174192880900038657
1174175684186583041
1174165445869326341
1174163201283383296
1174049828369682432
1174049647985217536
1174029838014799872
1173953398883811328
1173951467624886272
1173914609528393728
1173860440834596865
1173853121258217472
1173844245263683584
1173588990487756801
1173469193053691904
1173466592442757122
1173464929094889477
1173460590930608133
1173454132830724096
1173453528041426944
1173450956043776000
1173445974204801025
1173185684884152320
1173130690486919168
1173107771094384640
1173102671152041985
1173101033003708416
1173094560722874368
1173087664959918081
1173084821435736064
1172852957718515712
1172758246257356800
1172741440201359366
1172565748373286912
1172564050644893696
1172562612615168000
1172512137094160384
1172373082746392577
1172372495116029952
1172355590389022721
1172347163172470784
1172343342937468928
1172191595875033090
1172180475701366785
1172173721127153664
1172147354813620225
1172091558348214273
1172086755614265345
1172080648460341248
1172023234562150400
1172023142543286272
1172012594745360384
1172009405170118656
1171993570036703232
1171831278305341441
1171823621938892800
1171791218407137280
1171788061388132352
1171786449408200704
1171719368624898049
1171714652679491584
1171687614711136257
1171684001188212736
1171647868198895623
1171638547138469889
1171463441569087489
1171316006557507584
1171283136803741704
1171065904534175744
1171063825015046144
1171056980955291649
1171055182760726528
1171052976623849472
1171023980104282113
1171021654522089473
1170939270573412352
1170938734298025984
1170936383302590464
1170933589669638144
1170933204942852096
1170922894865530882
1170921716584857600
1170714477114691584
1170642498739265536
1170635516376571905
1170425256097398784
1170422003586592769
1170420095820038144
1170397006319079425
1170396583042543622
1170366126699597825
1170302358372249601
1170226479709294592
1170184167704813568
1170172511381684224
1170169800938573824
1170166058679844865
1170159165207003136
1170016671605510145
1169914163126095872
1169909676470784001
1169908160234082304
1169903190621310976
1169891390014119938
1169874374800769024
1169852873774993416
1169830506604576768
1169646171196780544
1169642281126596608
1169628979663261697
1169621340900474886
1169618367633907712
1169618184615469057
1169594464186191879
1169572768007901185
1169539565717094400
1169535702737944577
1169530020248686595
1169519103356223488
1169490390258290690
1169474315441582080
1169450779607879683
1169450585566826496
1169306803932258304
1169288156467744768
1169285808005632001
1169193372042448896
1169191054895013888
1169183420557119488
1169178030171836416
1169177600045899776
1169143237715668992
1169135642602856448
1169081167192002560
1169078153349742593
1168958554570657793
1168956088533823494
1168951902257713152
1168944300593487872
1168943067665244169
1168937874223501312
1168936947366150145
1168923616823693312
1168917488631013376
1168850905367605248
1168831703646793728
1168765115023249408
1168759563224375296
1168741754880831488
1168585974512668673
1168583588498948096
1168549558286192642
1168546693928935425
1168543835485589506
1168523399716470785
1168476895731580928
1168475324817920000
1168403711019769856
1168401556930039809
1168172884654641152
1168089647106248704
1168066718943469568
1168052806156046336
1168016927802843136
1167991458453843974
1167989280926339072
1167850355008212992
1167779637381853190
1167769210723811328
1167765857608458240
1167762876175736832
1167691863886913537
1167440101305044992
1167421373272051712
1167409104069025792
1167408966973788160
1167279705738792961
1167277814942294016
1167088959593140224
1167059989917102080
1167014142491840512
1167009448713285637
1166999870906847232
1166944383041560576
1166920154233491457
1166751960361365504
1166730864719474688
1166710228991107072
1166594165486104577
1166447703284338688
1166393440575217665
1166392409099399169
1166388481074987009
1166384673750020096
1166362080028573696
1166337164570812417
1166322222048219137
1166317708519960576
1166301612588949504
1166296209444626433
1166246960006696960
1166245937926164480
1166244685637021696
1166129939961110532
1165991570711035904
1165977831316193283
1165964566909468672
1165896602524930049
1165623241148223489
1165613253847683072
1165590535467200514
1165584340551491585
1165577180895559680
1165555210674040832
1165537051262865409
1165532892857917441
1165530768556212224
1165527247253409792
1165515751597305856
1165505538697781249
1165503207180660736
1165502565024288768
1165497788215353344
1165489961782501376
1165488186853711872
1165321015427096576
1165314240208461824
1165312377727750144
1165311462929100800
1165310823410978816
1165309611257155585
1165307993983897601
1165261572173750272
1165243367707402240
1165241791538352129
1165237702691713024
1165233862902829056
1165229455188451330
1165178820376182784
1165167277160878080
1165165914267848704
1165165032335802369
1164931192874917888
1164916779669286912
1164794801557917697
1164793591559909376
1164776079229214721
1164499211800334337
1164412508267876354
1164408300521193474
1164396567333355520
1164395264364417025
1164251532369379328
1164250001796583424
1164248502546784257
1164237517987569664
1164165336255516672
1164156019364098049
1164155158973956097
1164134305108357122
1164131812831944704
1164114734699802625
1164080757100257281
1164077275517603841
1164057048939581440
1164037144840724482
1164014687240912897
1163869953943953408
1163843669369282565
1163841783404670978
1163755282096201728
1163729674691760129
1163728854311043072
1163696555917844481
1163694935981228032
1163692266617110530
1163686432579309568
1163467332720549888
1163467113010348032
1163322106072846336
1163309806461095936
1163308908229943296
1163308198876581889
1163307002103259137
1163302062991523840
1163299550435717125
1163299282579021825
1163298742944116736
1163297602831622149
1163004174063173632
1163003739424186369
1163003565167636481
1163002260705533953
1162987558524948480
1162984135943573504
1162973464593965056
1162973094648012800
1162961013634826241
1162957689841844225
1162775049322942465
1162615615959363586
1162613659153002496
1162570625178718208
1162569112381353984
1162441929096716288
1162360226063908866
1162358324920066050
1162337566860836869
1162266432677109760
1162234384948183040
1162217008076742657
1162001697134145536
1161976363076599808
1161968780248899585
1161894898749956096
1161873000771149825
1161587033946484736
1161577771216166913
1161565345204690944
1161535623511060480
1161520695978995713
1161520063930884097
1161519598807789568
1161200140012494849
1161134053451427843
1161095525841506304
1160957706326269952
1160853005140287489
1160494041835794433
1160454971214589952
1160120084754386946
1160110819700383745
1160071250682642432
1160041007552946176
1159722147251548160
1159703095909048321
1159702520102391808
1159522596053852160
1159371562052538368
1159363637980483586
1159333487721115650
1159332450515873792
1159329090815422464
1159315115075952641
1159314367055368192
1159159957339529216
1159158804883206144
1159043821855883266
1159014110803030017
1158971003881451520
1158796575553966080
1158709486510456834
1158591252629204998
1158578771848359937
1158573865720639488
1158403741009108992
1158402098234454017
1158322722092380160
1158307950873571328
1158259878709878784
1158259294699053062
1158252077090398214
1158244854406664192
1158234109669453824
1158229460593889285
1158207568008736768
1157966273587793921
1157947550864822272
1157937237343911936
1157896129926746113
1157894420894646277
1157893680037912577
1157893557757210624
1157890169476751360
1157884505631281152
1157878669068525568
1157602235586453504
1157591944098246656
1157564128006832128
1157503983025446913
1157163457088651265
1156950014024921088
1156933675306475520
1156932584460320768
1156931958678515713
1156857948355751936
1156788248724869125
1156539346255675392
1156538350196555777
1156432245550284801
1156252670102949889
1156219978468605952
1156103721299763200
1156072924337414144
1156037940234969091
1155800720974573569
1155797608545185792
1155797236942397441
1155709736303513600
1155708510576902151
1155695528757403648
1155693318086549504
1155684762390007809
1155502246311841794
1155463424895098880
1155431894214795266
1155431782050750464
1155365394179219457
1155364625711431681
1155343389677641729
1155335100654952448
1155332975531188224
1155112540717719553
1155079219593875456
1155047421237321728
1154837104221773824
1154656747346255873
1154654182307057665
1154621558507233280
1154430265738924032
1154348672433266689
1154333011049009152
1154084287307636736
1154082675168174080
1154080374705704961
1154028054756261888
1154027226758672385
1154003478466850816
1153930481806692352
1153928249761660928
1153927758801539072
1153917321070571520
1153916973710893057
1153683704482373633
1153673656783888384
1153658245879197702
1153634668878520322
1153291023461863424
1153197545977462784
1152975074808537089
1152959074264330240
1152957629066559490
1152951689470722048
1152895383519006720
1152894520184455168
1152892509246447622
1152844348981223425
1152552502920802304
1152275831047303168
1152270960403329030
1152265053032321024
1152164811423256576
1152122259626254337
1151789279267438592
1151251370995048451
1151008127367688192
1150922248938762240
1150909663149461505
1150909044921700352
1150901080336818182
1150841573967564800
1150350684224663554
1150311543071838208
1149938516966682624
1149566000724971521
1149375733329829888
1149371479449931776
1149365178049290240
1149351593671659522
1149298023018577920
1149296111053447169
1148921028338278400
1148905452173852672
1148868811560349696
1148854504026066944
1148841596655325184
1148801723789484033
1148661643389227008
1148575173479563264
1148464014956957696
1148446850158137344
1148437870622859264
1148310124789768192
1148287212263362560
1148285840319111168
1148126900704833536
1147874451435839488
1147870108552847360
1147796828294750208
1147753634567864321
1147534273844535298
1147459287381229569
1147439793090879489
1147432766453080065
1147430957885976577
1147364863645122560
1147363757519077382
1147353484897005568
1147157255789244416
1147115128392843265
1147073495077048320
1147073421890637825
1147045030105796608
1147040413124972544
1147008827889504257
1147001733652107264
1147000648715710465
1147000358461423617
1146816960245592066
1146743852272779264
1146664877533982721
1146643442254192640
1146625109127335936
1146624355461242880
1146384096102248448
1146125015445692416
1146108384791289856
1145989960995966982
1145916256387604480
1145757577042485255
1145747737423405056
1145552191379275777
1145533838325456896
1145281526784905216
1145277017320910848
1145275296192450561
1145270894278762496
1145263391935619072
1145234744583446528
1145226917143969792
1145219897363795969
1145208472545325058
1145205653826260992
1145181311293779968
1144951717181575170
1144927895128698881
1144926338525958144
1144914189896450048
1144906778833899521
1144903972873891845
1144902383253594112
1144898927516246017
1144897947378700290
1144869987359719424
1144863441624039424
1144855665237614592
1144855311053811712
1144849486193156096
1144843689442721792
1144837590786301952
1144832070788628480
1144829744984100866
1144828143108182016
1144825441011716096
1144690745695019008
1144679750192906241
1144678747276054528
1144678642410115072
1144671918378778624
1144668392323874816
1144663914552025089
1144662173265776640
1144660143176466433
1144477406050131974
1144474242542522368
1144311150042947584
1144303529969852416
1144286891182682112
1144284544398311424
1144160871695802368
1144160773330964480
1144146679525859328
1144146027059875840
1144145134872748032
1144143866120945664
1143971544042856448
1143853891852746752
1143846871581913089
1143842467940225024
1143812548480733184
1143806514416640000
1143805838391275520
1143803472409587712
1143799707082227713
1143798856884166658
1143780308375916544
1143416962531246081
1143416593336000512
1143412109146935297
1143402263060209664
1143389076952715265
1143343882505056257
1143342917940998145
1143341982418231296
1143341014859431936
1143191935634440192
1143167764036632583
1143165386331844608
1143134391830372355
1143132139103277057
1143092140873879552
1143086673254703105
1143069026542739456
1143053358212632577
1143052807731236864
1143044063026745344
1143001924750336001
1143001846350413825
1142988955429638144
1142875848099262464
1142864894997327872
1142856307029893120
1142854706533789697
1142848462448259073
1142832391959928833
1142811662618988545
1142803023694974976
1142796789709340672
1142732739734409217
1142697951866707969
1142697331080327168
1142493409560551425
1142398689601699841
1142393431227916288
1142359720025477120
1142357484704714752
1142357271885651968
1142357021674524672
1142350735507484674
1142350167888150529
1142347124337602560
1142316845514362880
1142315938995290112
1142315370264420354
1142315134037057537
1142302899919179776
1142023628143202304
1142005256487755782
1142000861809266688
1141993578492616705
1141967674831884289
1141917965777924098
1141917490412343296
1141762476238757888
1141754265662132225
1141727882194116608
1141700143114141696
1141670791244685312
1141664662519308291
1141651024119136257
1141633333056589825
1141289281878495232
1141268682661777408
1141209045245800448
1141039756228227072
1140980404113039360
1140962203752783872
1140961779687649282
1140959826907815936
1140876651623903233
1140861954417762304
1140854608308211713
1140610820579057664
1140596386150285314
1140493849522925568
1140490841829437440
1140305166932926464
1140294529360322561
1140266399727783938
1140256476885372928
1140254520796241920
1140240820957831168
1140209304261156867
1140191817951936514
1140190890373160960
1140159233880551424
1140157207532752897
1140137022801219584
1140134757705166848
1139939515584397312
1139893598974042113
1139842080455266304
1139841614384254976
1139803066826276865
1139801873349787649
1139781851722027009
1139769053088636928
1139765583925219328
1139752904883990528
1139746435077820422
1139603777583906816
1139585583477485569
1139456354861502464
1139447063727366144
1139425337316532229
1139408467951665152
1139374624393723905
1139092564034723840
1139091793700503552
1139074529739730944
1139069006520827904
1139038490010771457
1138900026887819264
1138896873668767745
1138888584721682432
1138866089792745472
1138860000539840512
1138823312526548992
1138820684811948032
1138820040453545985
1138704088986599426
1138702598926553089
1138677676942581760
1138490118820552704
1138460897226240001
1138451682193498113
1138449825769381888
1138438893311651840
1138430159768379392
1138414119764160513
1138407123786747904
1138378900554231808
1138316827333816320
1138172055960969217
1138171756315783168
1138157903007834115
1138150589764853765
1138132238246170628
1138111920358252544
1138092828406439936
1138082321406550016
1138061979187261440
1137939367790559232
1137785091650756608
1137728583101587459
1137652504643088386
1137651890227941376
1137634263057088514
1137632569405595649
1137628652961533952
1137609931840937985
1137598373832216577
1137329034256363520
1137325382238134272
1137309554314637312
1137305416197709824
1137299980492988416
1137288732380475392
1137288171119611904
1137262827901718528
1137256842655150080
1137242107574247425
1137232771443712000
1137036365105778688
1137033189543665664
1136962591224356864
1136650191791169536
1136587589043904512
1136548063898509313
1136547963512152064
1136519548763496448
1136262434769915905
1136250319027859456
1136195925578113024
1136195435410862080
1136194935370076161
1136148915554643975
1136115040455614464
1135907238827048961
1135849289492492288
1135769370209280000
1135752611217285120
1135749454361899008
1135748470185156608
1135633830805528579
1135632059668389889
1135631297538191360
1135629588799733760
1135623176682000384
1135488344878592000
1135199351263772672
1135187101811527680
1135169639661441024
1135157437210607618
1135156876683894784
1135127756167979009
1135107310634725376
1135099242706419714
1135070046256951297
1135055743789387777
1134812807449403393
1134745219247747072
1134534308855549952
1134475982268616704
1134459620439625728
1134439467975041024
1134438200812875777
1134395951878041601
1134379404350676992
1134363897987706880
1134361632237187073
1134345061011927040
1134155084382629888
1134121717708673025
1134118911497056256
1134112987428425728
1134110296786685953
1134110047837941760
1134057171447033856
1134055789373452289
1133806959994343424
1133797195113684992
1133719712624304129
1133689879626305536
1133683351569674240
1133593076390354944
1133576819515334656
1133576056902787072
1133442694682775554
1133416087926665216
1133311302611349504
1133288878591209473
1133281936560934913
1133281297042817025
1133280563182182400
1133279037793624064
1133243815769366528
1133031099930697729
1133019566886477825
1132996648609574912
1132867207539634176
1132640415700660224
1132616579038892032
1132612282389688321
