1326701523317878784
1326701452807430144
1326701420863631365
1326701365242916869
1326298310135570432
1326249301463375873
1326239169165758464
1326227590810497024
1326226914122493952
1326226867481763840
1326226753690296320
1326226627433385984
1326226586476048385
1326226320322306049
1325896566545149952
1324882358785376256
1323690333822095365
1323690305418272768
1323690158105915392
1321972443855036417
1321970452303028224
1321857808774516737
1321856741630377990
1321578403376504833
1319332541107638272
1319332493254770689
1317322763476955138
1317321907314720768
1317320355594207233
1313948090101948416
1313255923708641281
1312459905060790273
1312452359461597184
1312087430007201793
1311758497441144832
1310684821103009792
1309601613405773824
1309601370459127809
1309489024340353029
1309190868096765952
1308897135367270406
1308897120884322304
1308897039388946433
1308896990982537219
1308828230892154880
1308827938234576897
1308826465924857856
1308824739322851328
1308824713708273665
1305553122027216902
1304125761150840832
1304058749691129856
1300519820589297664
1300518921984901121
1300518090275467271
1300473071535632385
1300470318247694337
1300470272848539649
1296284669105905664
1296284266977005571
1296279398514130945
1296275444120027138
1296266484298256385
1296264516901183490
1296263848127795201
1296262863091306496
1296260475404115974
1296259036736819200
1296258850266505223
1296258829315969030
1296211442740473856
1295900499112230921
1295889474459754496
1295889339696721922
1295889261594648578
1295889252241281025
1295889222302400512
1295521876048072705
1295521628693159941
1295521596720009219
1294037811566383104
1293966233273085953
1293958958709968896
1293958482287374341
1291424366497083395
1291423715553619974
1291407784454557698
1291407188414607361
1291396350878404610
1291396198969024513
1291370042442092545
1290671042462179328
1290670848093949955
1290432356873121792
1290413985448300549
1290408199397478402
1290408129809833987
1287804951087976449
1287804949481631744
1287804948231708672
1287804946373644288
1287804943253086208
1287801183147634688
1286104911957065733
1285714632980811776
1285266541039300610
1285236356537614337
1285236316360323073
1285218669845532677
1283525082938257410
1281361491086708736
1281336324469989383
1281305503235289089
1261001236913860609
1261001236104404992
1261001235366154245
1261001234531541002
1261001233478742017
1261001232165957632
1256213657052037120
1239591598859534339
1238167373850365952
1220059992557903872
1216891991356633088
1215383629137756160
1215063150388600832
1215054664439173120
1215054663692603393
1215054662950252545
1215054662237163521
1215054661377384448
1215054660412641280
1215054659519336449
1215054658667892737
1215054657321455616
1212461117475180544
1212460436894830592
1212457892038623234
1212113390815961089
1212111536832962560
1212110532167127040
1183760453396119553
1182002549190270978
1179087661870600194
1175123426949943296
1171924255447166977
1171782524273594369
1171536742278557696
1171452901903851521
1171452891837583360
1171452879846068224
1171452843892461568
1171449232919687169
1171449223448944642
1171437619835617281
1164567535330701313
1164567524308070400
1164567510051631104
1164219898136014851
1159599582797451264
1154705736104124416
1151894198540472320
1151889778671050752
1151862383066959872
1151862373088747521
1151862363592765441
1151852947409690624
1150919581726195712
1150905983453007872
1149770118748090369
1149764661304352768
1149763628880605185
1149761468054888451
1149761419505799168
1149727150272106497
1148661561076178945
1148351838036664320
1148312088663777280
1148252398625984513
1146446443500228608
1140989666717511681
1139143672925163520
1137357769194057729
1136625883886903297
1135913661837393922
1134572615559987200
1133388584445255681
1132354281007407104
1131621139464065024
1125804867363061760
1123670285130108928
1123603024683851778
1122932577470435329
1115703581426892800
1115703570861453312
1110249725121323008
1110249685082464256
1110249439367565312
1106620029909364737
1104102899892645888
1101584036886065152
1101279966321246209
1100848673305419776
1100111582195998721
1098577170891341826
1097550473790251008
1096485569046163461
1095776183868944386
1095704879773962245
1095704609287491584
1095704594959732736
1094293498688237568
1094045470605733889
1093656719043977216
1093592095225307136
1093547737830776832
1093545231843094528
1093283915345743872
1093181012119441408
1092552980413345793
1092552962340057088
1092394592211820544
1092095080041668608
1091476163719966720
1091391500720590849
1091356593667563521
1091356580455448576
1091346171598036992
1091058616159760385
1091058562787229698
1090944601928523777
1090684077785542656
1090611422310977542
1089547142048305153
1089235180827467776
1088962558214590466
1088438347654033408
1088199210883637248
1087377459866066947
1087012524912869376
1086308656742686720
1086009862947930112
1085961744160219136
1085700052683616262
1085700030294413312
1085699822093361153
1085621796286517248
1085584422114549760
1085237575403458560
1084854113064517632
1084495109700300805
1084138963747594241
1083698158650064896
1083368349352919040
1083039962730135552
1082373864464691201
1078354790382329856
1075503726520033280
1074015640174784512
1058069768450654208
1056966544767348736
1054830179644727296
1054781085777747969
1053409583350210560
1053389230947221504
1053066180116721664
1053066054212050944
1051979330300010496
1050445279713886208
1050440889460355072
1050092912418086912
1048250017901731840
1047269839046234112
1047269736998875138
1047173078986285056
1046788599079813121
1045438417885048832
1045437001346891776
1045430451677016064
1045422925480787968
1045422202647019520
1045026060327219200
1044304721312239616
1044271825432141829
1042597019884314628
1042596756138016768
1042206658422702080
1042206331061452800
1041518102142345216
1041517876992065536
1040358954981715968
1040358549396762624
1039961498250924032
1039961423923691520
1039627903414165504
1039627855942934530
1039222012994940928
1037051153098272768
1037050839871811584
1037050789779263488
1035656356949155840
1035280019658928128
1035279667970752513
1035279611003723776
1034938878782660609
1034938687375650816
1034226238552829954
1034226111050211328
1034117454832623617
1033129727266091025
1032738644358918144
1032654693422395395
1031971740920963072
1031940293602361344
1030578373435699200
1030128547539480576
1030122759656034304
1029849089083506688
1029841632403677184
1029798668927291392
1029765568419614720
1029524059166453762
1029520755719950336
1029407023727763456
1029405684054425601
1027630122902286336
1026916873957343234
1026869735990812672
1026539693851041794
1025460918799323136
1024352357050511360
1022893197146517504
1022521307366416384
1020034473813921792
1020033709519458305
1019310515145748480
1018973871515422720
1017819649365270528
1017100700419944448
1016740259650891776
1016428800358301696
1016373103893475329
1014264471408164864
1013896018646061057
1012744441617002496
1012397556100239360
1012039325423243264
1011987635232002048
1009898254522183680
1009862154210570241
1009485746808340480
1009199392635510785
1009101801809850369
1008864785654378496
1008789960881627141
1007688442287828992
1006558211627872256
1006305273986744320
1006226212136484865
1002315942502678528
1002260443388231680
1001928954813431808
1001928477803659264
999763193609142272
999414226652250113
998961153307918336
997545224132947968
997512061520265216
996785139286884353
996502282576347136
990648656591142912
990648562873651200
984559458058584064
981273701512441856
981272770939011073
977975103643242496
976557132156870656
976119525153255424
973342426508099585
973341322026270720
973341262962032640
971900145062178816
971900042331045888
971152350176931841
971152315401961472
968986540792623104
966350771167019008
966084297516990464
966084192227418117
966083213465550852
966083035387985920
965992554423402496
965992143536889856
965992070123892736
965991538449776641
965990877691748352
965990662784016385
965990373947457536
965990164328673280
965987891850633216
965640433534623744
963819079176876033
963567666538545152
962097793597763585
961760039840071680
961758431865585664
961005438685798400
961005377767686144
960920216665403392
960912351569440771
960619465846091776
960619445273030656
960560751814430720
959317101709176832
959110423701200896
959107206040846337
959107025874464768
959105232641773568
959104105187655685
959103629582938112
959099337971195904
959097795066998784
959096706225774593
956667813984288768
956556309016453120
955478781224873985
954559862590943232
954011803746426880
953393472311930880
953393372621824000
953393339637817344
951903868257845248
951903809164357632
950821350364491776
950769376780722176
950495574758850560
950494347312578561
950455786697736192
950450350200274944
950441364059115520
950250948026286080
950233849186828288
950226578071478272
950171613638504448
950169067792482304
950161864419303424
950155753230295040
950154697515589632
950153496732446720
950145552922042368
950135632902291456
950118307192909824
950113782210084864
950107307467091968
950104988130295808
950104691592974337
950091371456548864
950091240363585536
950091181249069056
950091149472968704
950090900079706112
950089785355333632
943605025275891712
943484440411623424
942815203996999680
942814805710094336
942814659265970176
941448089717456903
941447953369071616
941447831151304704
941373664913539073
941373578112524288
941372888006803456
940249234040791042
938083272482889728
936448533053390848
933473966781370368
933398842795483136
932760372469055488
932759563052269569
931652635127459841
931648453293117440
931536845900414978
930896777628102656
930892422367789056
930457643679932416
930457577183309825
930174029159284736
930160761652965376
928396760828993536
928395166611673088
928392653795758080
928003703608446976
928001018809393152
925116991739805696
925116205928554496
924013782690684930
924013505866432512
924013344742244352
832319172927381504
831938603500466178
824738341413216256
784071127677095936
784070978024255489
784070572946763776
771490213717610496
771490148525576192
769332051950473216
738074096194314241
733407269006663681
730868028519243776
730867602512171008
728686219933048833
728684193803210752
728684084046630912
723242638510460932
723242430875598848
721014575831748609
715964857460375552
715964464617627648
715241810025578496
715240445563908096
709788065745608704
705498030967881729
700393358024245248
694708202991058944
661692880906354688
654751548161941504
643440672427614210
642094426890838016
642091619932598273
641663254822027264
641648357677625344
641647733770702849
641646946936061952
641642562718179329
641642534440202240
641642319624728576
641323553435070464
641322172414357504
641321822617772032
635903234893328384
635855133881049088
623625305295618049
623624200729796608
616668536862322688
616667513544437760
603233414972510208
598904061232943106
598903416748802049
591381662379872256
591301905667743745
591287313755283457
590992453164924928
590534665670303744
590277095546224640
588800602253107200
588406722177318912
588404478203707392
588404231096242176
588373688602398723
588373643438108673
588044416063037443
588042670880206849
588042498326532096
588039284474695680
587993137420771328
585911692573442048
585890282341855232
585103330042630144
585102582357569536
585102196347383808
583418408231956480
583418040483713024
582560669721096192
580427637279092736
580408893781778433
580408746494554112
578343312177790976
577601713030316032
573607056479010817
573586381441757185
570263933313019904
566685643737030658
566685560656240642
566685427747143680
566359801601327104
563434908543377409
563404648724590594
563402490813906946
563085243981496321
562677720141037568
560910645600583680
558312627034931200
558311885427453952
558311668686802944
552883569467875328
552600734576168962
550048866645450752
545638928871874560
545638582262972416
543524235935625216
540972250879774720
540589902652768256
537673926441455617
536562379925254144
535528901473468416
535525965720715264
535201557890203650
530762954011312129
529659463712915456
529647876696449024
527118544627331073
526859910596677635
525733671966621697
524980174748520448
524797988414054402
524648300809428993
522054207105290240
522018388760350720
521037748762071040
521037618486984704
521036788715245571
521036298749218816
519538935920623616
519520838899740672
517331683885211649
517119251237580800
514889545242779648
513064990342131714
512988575361957888
512265998809182208
511893543187537920
511552669589446657
510150985004490752
510108789031575552
507665712433754112
506907143711096832
506906981718691841
505050336365920256
505028305230520320
504679397837004800
504365450864914433
502121493363716096
501829752010047488
501505100074872832
499008116948619264
494982711778762752
491990572346146816
489799839232712704
489517213456412674
488739704926638080
487694032571621379
486234493179932673
484456618403188737
484421269862252544
484400008620687361
484007564644872192
483656266703581184
482624052557647872
482618855705960448
481858760655532033
479719070900969473
479311192557895680
479004719424106496
478965678355914752
477481812000657409
477140642154311680
476802948765601792
476783008087674880
476749184524369920
476526788315586560
476419325361131520
472108535242047489
472035489932136448
469941933037461504
469536091016794112
469534929852710912
469245261047271425
467438329277861888
467437995168002049
467043016071716866
466626322178269184
465893963484774400
464918227789688832
464478066262032384
464136032141594624
463794969543598082
462290867626442752
461549990255820800
461193328990883841
460874628463079425
459743845257719808
459444904628727808
458747579539288064
458722642489389056
458327321133330432
456522632104394752
455087282001686528
454288016673366016
454287780395626496
454286095891849216
453666873326854144
453600362633920514
452584455891218432
452584237074354176
452155594296684544
452147256695590912
452120977673957376
451506650281553921
451491980896268288
451073478557327360
450781076135215105
450679393367511040
450657628486893569
450327051950493696
448918405333417984
448918359846191104
448824197922684928
447110502419038209
447110353466716160
444961972443156480
444961868294393857
444535883950477312
443036329614786560
443036221007478784
438042670964158464
438042603003871232
436194933494796289
434367678653136896
434367592334385152
433690038497738752
433689768913031168
433427930434134016
433427634828345344
433023147773026304
430711147436986368
430711110225125376
430710693239615488
430354592527040512
430354508795756545
430354084630384640
428536999394287616
427912149067788288
427911936551174144
427911903432962048
426366916144689152
426366395920572417
426366073974587393
426365964448694272
426365916117741568
425728832604078080
425728612978159617
425728391531479040
424255044570324992
424254764281790464
423598306447458304
423597080301801472
423596881965748224
423505066868633600
423444689636065280
423265956568506368
423247079436484608
423202992867659776
423202889008689152
423161993940701184
423141537212813312
423100876535136256
423097364946358272
423097318863560704
422882134337277954
422811804612714496
422811558604193792
422811441323081728
421313978527412225
421042294964641792
421042282830499840
420670621794979840
420573248695586816
420219480438886401
420218194838962176
418880677820784640
418880575093866496
418880477777649664
418854328808779777
418792628898242560
414080493181997056
413853695005057024
413852634907287552
413847264008749056
413836335825166337
413781135663960064
413779140027109376
413725845614624768
413724230866333696
413055896416432128
412583622039076864
411892299094691840
411656444237205504
411654071775285249
411653973062344704
411653872579387392
411653770372579328
411653624302170113
411653584875708416
411653134662922240
411652872938717184
411297011322073088
411281937983369216
411244190463320064
411203120472285184
411203036363911168
410927035083927552
410893747304816641
409094292972773376
408997312300449792
408609732505911296
408009162493538304
408009057887195136
407977530399137792
407976874183499776
405411953444945920
405409584992780288
405407010549956608
405401996502765568
405057838902706177
403544977097379841
403539561789521921
402976451651461120
402896226510962688
402475100265803776
400398215536984064
400328687578775552
398840317954502656
398494818667491328
397856899980615681
397846325003567105
397845071342866432
395547344349200384
393915314498715649
391363301256359936
388703478564261888
388703093929418752
388699278719598592
387777432327307264
386244550085603328
386244160824803328
385489717133070336
385489535230287872
385056602912751616
384711865668235264
384711565318324224
383324286616092672
383285535256891392
382963440207536128
382635022454636544
382512944841773056
382234248767610880
382172556880801792
381947786557943808
381946580229980160
377472919943008256
377228745704493056
377129692186173440
377120577993342976
374596833500069888
373891518055985152
373078832988704768
373078639237033984
372013809176961024
371322195555131392
371024314491219968
370577728086753280
370561465667039232
370446090547388416
370185114401402880
370183239392296960
369581205014204416
369481370046709761
369479552906846208
368494172325806080
368432520700108802
368389962825482240
368130188284264448
368129676403036160
365200595344719872
360820936527724544
360142529649311746
360141590490132480
358275447072620544
358005899715026944
357618627786182658
355060454927761408
350633562585833472
350301935292788737
349307496155979777
347059144240537600
347009437162151938
346644311930195968
345581499837448192
344553979860099072
344522090826825728
344472061672042497
344203415074770944
342711378596995073
339431333539479552
337948242895577089
337316366656876544
337247396255891457
336527443030589441
336239221369090049
336236749112102912
336206557224239104
335936088575201280
335533146634342400
335136513987858432
334012505066196992
333372194816155650
331206476901253120
331071900551897088
330054588596105216
329300212831109120
328971720411201536
328551074430586880
327935194805960704
327831510382178304
327467502928007168
327139627624460290
326435284512280577
326382297752412161
325739532588822530
325690218537680896
325227048601784320
324950403697483776
324919192941895680
324574919931346946
324541740025524225
323838937305067520
323812268766789633
323802430917722113
322979009870823424
322975632365596672
322802582856818689
322763656234422272
322747305566543872
322747276378378241
322747164897992705
322443826725797888
322364360741765120
322088374192201729
322064480387338240
321992618001186816
321691579326820354
321664988110544896
321302798685843457
321281926881218560
320261786819506176
319857576995065856
319829720030130178
319829138821226499
319555051033092096
319513504862334977
319501761847115776
319478938843889665
319472522439573504
319149057471807488
319115174781022208
319112602913472512
319108052064280577
319101731663384576
319101697081348099
318817054209736704
318815499855224833
318815450987388929
318815363078971392
318740044674371585
317992660860284928
317727963724529665
317667504124211200
317331238908215297
317331223645130753
317330786741284864
316966199391031297
316930748345098241
316930692334354434
316259882544295938
314829777724911616
314461032825372672
314446366854225922
314445699762769920
314445606921830401
314445363069214720
314436506955698177
314435359876456448
312944979448324096
312914806229327872
312912987088359425
312912573597114369
312337376552820736
310758078066860032
310589456321224706
310588871035457536
310499391091916802
310089018681470976
309395503521607680
309373164306169856
309256176464449536
309255703812521985
309254248212856832
308985505557643265
308053978380378112
306931767963697152
306263864599789570
305873426952892416
305662401800441856
305179493163741184
305159596681596928
305123929637400577
304947796958670848
304353995684712449
304272048107188224
302150648940597248
302071748029972481
302069486784217088
302068482399412224
302068073622544384
302066900165341184
302066653687054337
302063145558614017
302062800526790658
302061817067352064
302061318519808002
302060605257437185
302055007015026689
301854756543033345
301848180725788673
301774559428874240
301756816314998785
301756790033506305
301746765911171072
301728658073194496
301728614058180608
301538627392004101
301529310261559296
301528689735241729
301528548613705728
301012232706330626
300699038787960832
300699017430593537
300475749041848321
300019838942859264
300019741307838464
300019655416877057
300019182790144000
299621280515227650
299603034609156097
299566007247327232
299558161952698369
299557969845161984
299557947195924480
299546536088596480
299546519139401729
299499556935200769
299372510011592705
299238111219703810
299236772309790720
299210594677035009
299178112942485504
299177349730160640
298868020082778113
298836435367235585
298829676762251264
298829338592280577
298829152532967426
298553450671779840
298547274257149953
298545183740534785
298544999950323713
298542516981088256
298540946033876992
298538503606788096
298535360131129344
298534838540050433
298533430491222016
298533028525903872
298531757903470593
298522689264566276
298520434830352384
298520226193100800
298512096721784832
298509287133704193
298508615071961088
298508481202372608
297819151613968385
297818621340700673
297818017163788289
297731931049701376
297445706275373059
297437527139303424
297423110360145920
297416120669986816
297405076828475392
297064731854925824
296707361526136832
296707077999587329
296361776419835905
296297658551771136
295998939474309120
295937964045901824
294924125233897472
293825624672448512
293825544561250305
293811260485677056
293047288106987520
293045984706052097
293044668155969536
293044253360263169
291975579455074304
291972719040417793
290914989949218816
290852037292326912
289788574960857088
289787875384504322
289764668896055297
289440934494621696
289408368639102976
289098555761754112
289031539512205312
286967129276829696
286950648514240513
286345230184218624
286006983457398784
285998883040014337
285980038451572736
283664413720985600
282194911917383681
281871445863329792
281861733130334209
281485794340913153
281152757526827008
280793044641529856
280778283975598080
280752104233127938
280719968184717312
279664749673844736
279348786000691200
279261610281955330
279258683597271041
279018020448370689
279016564462858240
278626655923224578
278259633834053632
278245755393822720
278200773802868736
277092312444723200
276776103773872129
276772896964231169
276334421714558976
275988063799357440
275629956883689472
275439052742864896
274727260630704131
274247551425855489
274247014936633344
274204996868915201
274192346185363456
274177705744928768
273902808489668608
273844293293182976
273544281778688000
272142913230753792
272130535151788032
270970150344331264
270929213094256640
270929104612773888
270925274818940929
270657425340772352
270609643066249216
270597530239238144
269563215632015361
269514308717780992
269512560217305089
269235939015008257
269149773104304128
268801991940116480
268789397774802944
268789324680671232
268783281129017346
268470946745171970
268468173551050752
267005939645808640
267005907915919361
266927806347358208
266623699023699969
266612118495846400
266271666546552832
266219246768504832
266217446078283776
266209764218900481
266010102144856065
265909250717528065
265623792972337152
265600800074645504
265589950634926081
265585714798927872
265561002442113024
265481312872316929
265473612226641920
264446767435751424
264446331555311618
264420011458822145
264033337604194304
263750948797681665
263750796422811648
263750687781957632
263738341554524161
263655578361024512
263655120984764416
263275130376036353
261935322420621313
261893341191487488
261838451404582912
261217581183139844
261161729680089089
261160231621492736
261148364354244608
261137771056463872
261118476557635584
261116544170459137
261111788236574720
261111496438865920
261110896603066368
260812266281259008
260785591074029568
260491330411700225
260421496223191043
259038923601362944
259029667372212224
259029168703029249
259000809734406144
258991383229112320
258628385830498304
258611502699905024
258611239683506177
258609633806143490
258400557730000897
258321899371761664
258227161561976832
256766711783641090
256396780927860737
256075613398519810
256069808276267008
256068800527618048
256062005943865344
256043369430675456
256029229580439552
254232407417438208
253935803531657217
253716850314203136
253715533973819392
253713986044981248
253522547591745536
253267271412236288
253254509051117568
253033822453649408
253032594722144256
252920644495347712
251822665118150656
251427920172695552
251401208277909505
251398324647755776
251398154061221888
251397180152229889
251394081182343168
251353513102278659
251138673242943488
251137834545737729
250998636056563712
250816952052879360
250579070113415169
250342958233157632
250322643201433601
248853503462756352
248135177707073536
248110952069857280
248097820052172800
248094415351074816
248094384074137600
248094353032110081
248094278906155008
247788635045371904
247402013057511427
247346604259028992
247006421307244544
246988218396995584
246634134263455744
246623998027382784
246623942876491776
246614151147945984
243551613405503489
243228112337395713
243226962917728256
243002428633534464
213697707863318528
213697147651096577
142262080182042624
142257044634861569
142256527405879297
142254550705905664
142252837999611904
142252537645514752
142250960327163904
142246893592907776
142244740841213952
142244099716689921
142239661161590785
142228584281542656
142047305334390785
141947989827665920
141947916402167808
132441264829374464
132284634863108096
131110972009103360
131037530048053248
130991698628186112
130861276179079168
126811931393789954
126762321082204160
126688858686504960
126504426054754304
123863225149300738
123789792692535296
123743947351801856
122463250188214272
122413666904719360
122340185424920576
122294405846679553
122157000808341506
121207196636807168
121207158372179968
120964097788477440
120890631844413440
120844810897731584
118476958693736448
118427383983390720
118353900859437056
117389793314353152
117340219803582466
117266735891099648
117220933353218048
116253055862841344
116179577075802112
116133766216421376
115883375184711680
115771380145979392
115628156819476481
114853083502219265
114803506665369600
114730031527370753
114684220571521024
114521391344259072
114183060001533952
114128311348760576
114078731047407616
114035868699860992
114005276935454720
113959445146505216
113765923747414016
113716343643185152
113642866600968192
113597057457078272
113403535785332736
113353955362344960
113280482749317120
113234671470518272
107242942703472640
107193361621983232
107119896768417792
107074077172318208
106880556763054080
106830973190148096
106757506642087936
106711692553109504
106518165634285568
106468588738719746
106395112350826496
106349305547325440
106155786627063809
106106202055909377
106032748338233344
105986922790387712
105793389185867779
105743815553454081
105670345465413633
105624525953171457
105388400764403714
94855047782989824
